Date,ABT,HON,AEP,BA,BMY,CPB,CAT,CVX,KO,CL,ED,GLW,DE,DTE,D,ETN,XOM,F,GD,GE,HAL,HSY,IBM,IP,K,KMB,KR,SPGI,CVS,MRK,ETR,MMM,MSI,NSC,XEL,FE,PPG,SRE,PEP,PFE,EXC,MO,COP,PG,PEG,RTN,ROK,EIX,SO,TXN,UNP,UTX,WY,WHR,XRX,PCG,GT,DD,SHW,CMI,EMR,SLB,CSX,CLX,GIS,NEM,MCD,LLY,BAX,BDX,JNJ,GPC,HPQ,WMB,IFF,AXP,CI,JPM,TAP,DIS,DUK,NEE,LNC,BAC,WFC,TGT,INTC,TXT,VFC,WBA,AIG,FLR,FDX,PCAR,ADP,GWW,MAS,ADM,MAT,WMT,SNA,SWK,AAPL,OXY,CAG,LB,VZ,T,LOW,PHM,HES,LMT,HAS,BLL,APD,NUE,PKI,NOC,CNP,TJX,DOV,PH,ITW,JCI,GPS,JWN,MDT,HRB,SYY,MMC,AVY,HD,PNC,C,STI,NKE,ECL,NWL,GL,ORCL,ADSK,MRO,AEE,AMGN,LIN,IPG,COST,CSCO,EMN,KEY,UNM,MSFT,LUV,UNH,CBS,MU,BSX,AMAT,BK,L,DRI,ALL,FCX,MS,M,PPL,CMA,HUM,HIG,FITB,AON,TMO,AZO,ADBE,CAH,SCHW,EFX,APA,PGR,HBAN,STT,KLAC,YUM,BBT,CINF,OMC,NTRS,SEE,BEN,MAR,COF,WM,KSS,RF,PAYX,AES,DHR,CCL,USB,MCK,CTL,AGN,CMS,AFL,NTAP,BBY,VMC,QCOM,PNW,ADI,TROW,LEG,XLNX,CTXS,HOG,A,SBUX,TIF,DVN,MCO,NI,EOG,RHI,INTU,MET,SYK,CTAS,FISV,ZION,ZBH,ABC,NVDA,EQR,WAT,SPG,UPS,EA,EBAY,GS,PRU,PFG,ANTM,TRV,CMCSA,DGX,AIV,MKC,PLD,BIIB,MTB,ETFC,MYL,VLO,GILD,TPR,LH,NOV,STZ,DHI,TSN,VNO,PSA,AMP,LEN,AMZN,VIAB,EL,VRSN,KIM,BXP,GOOGL_x,JNPR,CME,WU,CELG,FIS,CBRE,CTSH,AVB,RL,VAR,CHRW,HST,MDLZ,AIZ,DFS,AKAM,JEF,MCHP,ICE,EXPE,NBL,EXPD,JEC,AMT,PM,ISRG,COG,MA,DVA,IVZ,CF,FAST,CRM,LHX,PXD,APH,FLS,NDAQ,WEC,SJM,PBCT,XRAY,WYNN,RSG,FLIR,IRM,WELL,HRL,VTR,ES,ORLY,WDC,PWR,FMC,BKNG,ROST,V,ROP,NRG,HP,DISCA_x,OKE,CERN,KMX,CB,IR,FFIV,NFLX,EW,BLK,CMG,MPC,ACN,MOS,TEL,XYL,PRGO,BWA,DLTR,TRIP,CCI,PSX,KMI,ALXN,LRCX,MNST,STX,LYB,PNR,DG,GRMN,APTV,ABBV,PVH,REGN,MAC,KSU,GM,ZTS,NWSA_x,NLSN,DAL,AME,VRTX,CPRI,ALLE,MHK,ADS,FB,TSCO,ESS,GOOGL_y,UAA_x,AVGO,XEC,AMG,MLM,DISCA_y,UHS,URI,RCL,HCA,SWKS,HSIC,AAL,SLG,EQIX,HBI,O,QRVO,JBHT,WRK,KHC,AAP,PYPL,ATVI,UAL,NWSA_y,VRSK,HPE,SYF,ILMN,CHD,WLTW,EXR,FRT,CFG,CXO,AWK,UDR,HOLX,CNC,FL,UAA_y,ULTA,GPN,ALK,DLR,LKQ,AJG,TDG,FBHS,LNT,ALB,FTV,MTD,CHTR,COO,COTY,ARNC,MAA,IDXX,FTI,INCY,CBOE,REG,DISH,SNPS,AMD,RJF,ARE,DXC,IT,INFO,HLT,RE,ANSS,ALGN,AOS,DRE,MGM,RMD,PKG,BHF,IQV,SBAC,CDNS,NCLH,HII,IPGP,SIVB,TTWO,NKTR,MSCI,ABMD,EVRG,TWTR,HFC,BR,FLT,CPRT,ANET,WCG,ROL,FTNT,KEYS
2018/1/2,58.79000092,147.3232422,72.41000366,296.8399963,61.31000137,47.38999939,157.0399933,127.5800018,45.54000092,75.13999939,83.58000183,32.61999893,158.0099945,108.4499969,80.27999878,78.86000061,85.02999878,12.65999985,200.4900055,17.28846169,49.61000061,112.1100006,154.25,59.77000046,67.97000122,119.0699997,28.29999924,168.1199951,73.51999664,56.22000122,82.59999847,235.6399994,90.55000305,146.9600067,47.81000137,30.81999969,118,105.3499985,118.0599976,36.43999863,39.59000015,70.73999786,55.31999969,90.65000153,51,186.2799988,197.6600037,63.25,47.16999817,105.5699997,135.7799988,128.1600037,35.29999924,167.9900055,29.37000084,44.49000168,32.31999969,102.3330917,413.7000122,177.0599976,70.73999786,69.51999664,56.34000015,144.9900055,59.04000092,38.15999985,173.2200012,84.68000031,67.16999817,217.8399963,139.2299957,96.58000183,21.31999969,31.13999939,154.5599976,98.94000244,202.5599976,107.9499969,82.23999786,111.8000031,83.23000336,155.0899963,77.91000366,29.89999962,61.09000015,67.62999725,46.84999847,57.29999924,70.07533264,74.94999695,59.5,52.33000183,257.6000061,73.01999664,115.9899979,235.7100067,43.81000137,40.09000015,16.02000046,98.58999634,176.8899994,168.5099945,172.2599945,73.98000336,37.52000046,59.88999939,53.52999878,38.54000092,91.62000275,33.36999893,47.84999847,318.5400085,92.08000183,38.63000107,165.5099945,66.51999664,73.91000366,305.2399902,28.02000046,38.34500122,82.14054871,199.8800049,165.2700043,38.22999954,33.86999893,49.11999893,82.20999908,26.76000023,60.5,80.40000153,115.6800003,188.0299988,144.6199951,74.36000061,64.86000061,63.49000168,134.5,31.63999939,90.20999908,46.63000107,107.1200027,17.37999916,58.38999939,177,156.1900024,20.25,188.3200073,38.86000061,94.26999664,20.17000008,54.86000061,85.94999695,66.29000092,221.1600037,59.16999817,43.66999817,25.28000069,53.04000092,53.81999969,49.88999939,96.31999969,101.9199982,19.77000046,52.18999863,26.30999947,30.60000038,86.56999969,251.6399994,55.27000046,30.43000031,131.4900055,192.9799957,736.539978,177.6999969,63.22999954,51.43999863,119.5400009,44.29999924,55.36000061,14.60000038,96.72000122,106.1299973,81.59999847,49.91999817,73.08000183,72.76999664,99.45999908,49.41999817,43.25,133.75,99.61000061,86.09999847,56.34999847,17.37000084,67.30999756,10.88000011,92.44000244,66.75,54.02999878,159,17.40999985,170.3200073,46.95000076,43.98500061,55.56999969,69.16000366,131.8699951,65.19999695,83.88999939,90.27999878,103.0800018,47.86000061,67.87999725,88.69000244,52.06000137,67.59999847,57.63000107,106.4300003,42.22999954,146.1300049,25.36000061,109.3000031,55.90999985,158.7200012,50.18000031,157.8999939,156.8500061,65.17500305,50.70000076,124.0599976,94.04000092,199.3500061,63.50999832,195.6900024,172.4199982,123.6699982,109.4499969,38.06000137,255.6699982,115.4499969,70.37999725,226,131.9799957,41.06999969,98.90000153,43.45000076,101.2300034,64.01000214,334.1700134,171.1900024,49.81999969,43.11000061,92.80000305,74.09999847,45.25999832,162.3000031,36.79999924,226.5599976,51.06000137,80.62000275,77.31999969,206.3200073,169.9100037,64.83999634,1189.01001,31.19000053,127.5899963,109.4700012,18.12000084,129.2799988,1073.209961,28.70000076,144.7899933,19.07999992,106.1600037,93.69999695,43.81999969,70.94999695,177.2400055,104.8799973,110.9800034,89.73999786,19.94000053,42.40999985,99.23000336,76.91000366,65.55999756,25.0749073,90.41000366,69.84999847,121.4199982,30.19000053,64.98000336,66.87000275,141.1300049,104.3899994,375.25,28.89999962,151.9100037,72.54000092,36.34999847,43.13999939,27.27000046,104.4100037,142.0700073,172.9199982,87.80000305,42.5,76.73999786,65.76999664,123.7200012,18.79999924,67.13999939,164.3000031,66.58000183,47.11000061,37.61000061,64.02999878,36.36000061,59.75999832,63.15000153,249.2599945,81.37999725,39.24000168,83.02688599,1784.75,80.5,114.5100021,260.5599976,28.89999962,65.34999847,23.11000061,54.65000153,68.56999969,64.76000214,142.3000031,88.75,132.5800018,201.0700073,111.5800018,508.9700012,292.9500122,67.18000031,153.8399963,26.64999962,95.31999969,68.06999969,89.69000244,51.77999878,108.6900024,34.77000046,108.9300003,101.75,18.79999924,124.0500031,189.2799988,62.70999908,42.93000031,112.2300034,47.16588211,94.05999756,59.54000092,86.11000061,98.41000366,138.9700012,382.6000061,66.61000061,107.1600037,41.79999924,71.76999664,16.43000031,36.65999985,56.74000168,72.75,152.9100037,64.02999878,79.91000366,276,255.3300018,181.4199982,75.68000031,240.0800018,1073.209961,15.02999973,267.0100098,125.5100021,203.0399933,225,23.11000061,115.5999985,173.5800018,120.3799973,89.51000214,98.43000031,56.05490112,52.99000168,100.6399994,446.9200134,21.29999924,56.61999893,68.87999725,116.0899963,64.70999908,77.01999664,106.0899963,73.83999634,64.30999756,68.94000244,16.43000031,95.83000183,14.60999966,38.86000061,224.0299988,49.43000031,146.9900055,85.68000031,133.75,42.68000031,151.8999939,89.08000183,38.06000137,42.86999893,51.29499817,47.88999939,15.02999973,229.6300049,99.55999756,75.01000214,112.6600037,41.34999847,62.16999817,275.1099854,68.73999786,42.11000061,131.5299988,72.37999725,626.0999756,348.9700012,220.6199951,19.87999916,27.76000023,99.59999847,157.8099976,31.86000061,100.8899994,122.75,69.54000092,50.20000076,86.02999878,10.97999954,88.86000061,129.9299927,82.22318268,124.8499985,45.54999924,79.68000031,216.4700012,148.5500031,224.6199951,61.52999878,26.88999939,33.50999832,85.52999878,123.6100006,57.66999817,99.76000214,160.6300049,42.04999924,54.95999908,228.0099945,222.3399963,237.3800049,112.8799973,57.65000153,127.6800003,192.4900055,53.13999939,24.51000023,51.29999924,90.80000305,193.8699951,43.59999847,231.0299988,202.5500031,31.10000038,44.34999847,42.15000153
2018/1/3,58.91999817,146.1060181,71.80000305,297.7999878,61.36000061,46.72000122,157.2799988,128.5099945,45.43999863,74.84999847,82.79000092,33.41999817,158.7299957,108.0999985,77.19000244,81.63999939,86.69999695,12.76000023,201.7400055,17.45192337,50.5,111.6399994,158.4900055,60.56000137,67.65000153,117.0800018,27.85000038,170.8200073,73.19999695,56.13999939,81.69000244,235.6300049,89.91000366,146.9700012,47.49000168,30.37999916,118.1900024,108.1399994,117.75,36.70999908,39.06000137,70.48000336,56.34000015,90.54000092,50.74000168,188.3000031,200.5500031,62.75,46.90000153,108.4300003,136.5399933,130.0399933,35.61000061,168.8399963,29.32999992,43.77000046,31.86000061,103.9698563,415.3599854,179.0099945,71.38999939,71.33000183,57.04999924,143.4299927,58.72999954,37.84000015,172.4900055,85.13999939,68.25,219.9900055,140.5599976,97.30000305,21.37000084,32,155.7400055,99.55000305,205.9600067,108.0599976,81.44999695,112.2799988,82.97000122,151.8000031,77.55000305,29.79999924,61.56000137,67.16999817,45.25999832,57.63000107,69.4726944,75.51000214,60.15999985,53.09999847,260.8200073,73.91000366,117.25,234.2299957,44,39.77999878,16.13999939,99.44999695,175.1900024,169.1300049,172.2299957,75,37.33000183,58.15999985,52.43000031,37.65000153,92.01999664,34.27000046,49.40000153,321.2099915,91.29000092,38.52999878,166.4100037,67.38999939,76.16000366,306.6499939,27.95999908,37.65499878,82.80290985,201.5099945,165.9600067,38.95999908,33.16999817,48.65000153,83.91999817,26.64999962,60.63000107,81.44999695,116.0100021,189.0099945,144.5899963,74.58999634,65.68000031,63.47999954,135.3699951,31.82999992,90.47000122,47.70999908,109.3799973,17.67000008,58.09000015,180.3399963,157.5,19.76000023,190.5800018,39.16999817,95.34999847,20.23999977,55.25999832,86.34999847,64.91000366,223.4799957,59.20000076,44.97999954,25.55999947,53.97999954,54.15000153,50.47000122,98.54000092,101.9800034,19.46999931,52.33000183,25.32999992,30.67000008,86.54000092,251.2799988,54.83000183,30.52000046,133.5899963,196.5200043,749.4299927,181.0399933,62.86000061,51.52000046,120.1600037,45.33000183,55.33000183,14.72000027,97.43000031,107.3700027,81.52999878,50.45999908,72.79000092,70.36000061,100.0500031,49.45999908,43.45000076,136.4499969,99.44000244,87.34999847,55.65999985,17.39999962,68.27999878,10.86999989,93.66999817,66.90000153,54.56000137,156.7599945,17.07999992,170.1399994,46.65999985,44.11500168,57.06999969,68.40000153,134.2899933,65.94000244,83.12000275,91.40000153,104.4899979,47.61999893,69.23999786,89.65000153,50.09999847,69.31999969,58.70999908,107.0299988,42.72000122,148.8600006,25.20000076,110.9300003,55.81000137,159.1600037,50.5,158.7899933,158.4199982,65.70500183,50.63999939,124.9199982,94.38999939,212.4700012,63.84000015,197.7700043,171.6199951,126.4100037,109.75,39.22000122,253.2899933,115.4899979,70.52999878,229.1499939,132.3999939,40.40999985,99.25,43.50999832,101.4700012,63.88999939,339.8500061,173.1100006,50.61999893,43.13999939,93.29000092,74.66000366,45.27000046,163.0500031,37.84999847,227.5,52.86000061,79.70999908,77.09999847,206.7700043,169.0700073,67.23000336,1204.199951,29.95000076,129.6199951,110.9000015,18,129.3500061,1091.52002,28.80999947,147.1100006,19.06999969,109.1399994,94.25,44.18999863,71.55000305,177.7899933,101.6399994,111.3099976,89.48999786,19.87000084,42.58000183,99.51000214,77.48000336,65.94000244,24.99063683,91.76999664,70.91000366,125.1699982,31.01000023,65.06999969,67.09999847,141.6799927,104.2600021,383.8200073,29.03000069,153.8200073,72.91000366,36.52999878,43.15000153,27.28000069,105.2900009,142.8200073,176.3399963,88.94000244,42.36999893,77.66000366,65.54000092,123.4000015,18.71999931,66.91000366,162.5200043,66.90000153,47.47999954,37.09999847,64.13999939,36,60.11999893,62.59000015,253.8399963,82.66999817,39.54999924,84.09366608,1824.160034,80.44999695,115.6500015,262.0799866,28.87999916,65.65000153,22.62000084,55.54000092,69.06999969,66.94000244,143.4199982,89.94999695,134.0399933,205.0500031,114.5899963,514.3400269,309,68.61000061,154.5500031,26.40999985,96.93000031,68.90000153,89.44000244,52.04000092,108.0199966,34.97000122,108.4700012,102.4300003,18.95999908,124.9499969,192.5,63.11999893,42.84999847,112.2600021,47.5486908,93.98999786,60.27000046,87.54000092,99.94999695,139.2100067,393.7799988,65.65000153,107.0899963,42.81999969,72.09999847,16.48999977,35.99000168,55.68999863,73.38999939,152.0099945,63.79999924,80.25,275.1400146,260.0700073,184.6699982,76.25,242.5399933,1091.52002,15.72000027,269.9299927,126.1999969,202.1199951,227.5,22.62000084,113.3899994,175.1900024,123.5800018,87.04000092,99.93000031,56.58039093,52.34000015,100.9499969,448.980011,21.03000069,56.47000122,68.38999939,116.8700027,65.40000153,77.01000214,107.0500031,76.75,65.30999756,68.48999786,16.48999977,95.55000305,14.69999981,39.11999893,230.3200073,49.11000061,149.7400055,85.86000061,133.25,43.16999817,152.5899963,88.44999695,38.34000015,43.49000168,52.21500015,47.86999893,15.72000027,245.1199951,101.7099991,74.66000366,113.6900024,41.56000137,62.63999939,270.2200012,69.55000305,41.74000168,131.7899933,72.41999817,631.539978,353.0299988,226.7400055,19.77000046,27.97999954,99.48999786,162.0500031,32.09000015,100.9800034,123.5599976,69.05000305,49.36000061,87.05999756,11.55000019,89.80000305,129.3200073,83.78027344,125.1900024,45.20999908,80.84999847,219.7700043,151.4199982,231.1999969,61.90000153,26.80999947,33.33000183,86.41999817,125.9800034,58.50999832,99.51999664,162.6399994,42.93000031,55.36999893,229.3899994,233.2400055,237.6699982,113.8799973,57.86000061,129.6199951,195.8200073,52.31999969,24.45000076,51.38000107,90.72000122,194.9600067,43.38999939,235.6000061,203.3200073,30.98666573,45.02999878,42.75
2018/1/4,58.81999969,148.0804138,70.94999695,296.6700134,61.75,47.11000061,159.4400024,128.1100006,46.08000183,75.33000183,81.81999969,33.75999832,159.6399994,106.3000031,76.83000183,80.76999664,86.81999969,12.97999954,205.2100067,17.81730843,51.63000107,112.4199982,161.6999969,61.58000183,68.73000336,118.4300003,26.97999954,173.3800049,75.12999725,57.04999924,80.54000092,238.7100067,90.66000366,147.3800049,47.11999893,30.31999969,117.4700012,107.4199982,118.3300018,36.79000092,38.50999832,70.19999695,56.99000168,91.18000031,49.25,190.0899963,199.6600037,62.29000092,46.70000076,108.2900009,135.8000031,130.4499969,35.31999969,168.8200073,29.69000053,43.52000046,32.58000183,105.9624329,413.1000061,181.75,71.48999786,73.09999847,56.77999878,145.6900024,59.40999985,38.25999832,173.6999969,85.51999664,68.41000366,220.9900055,140.5500031,97.41000366,21.53000069,32.54999924,153.7599945,100.8499985,207.0399933,109.0400009,82,112.2300034,82.31999969,151.0200043,78.93000031,30.19000053,62.33000183,65.84999847,44.43000031,57.58000183,71.05461121,71.59999847,60.40000153,53.25999832,264.8800049,74.84999847,118.3700027,236.0599976,44.04999924,40.45000076,15.90999985,99.54000092,176.1699982,169.7899933,173.0299988,74.95999908,37.93999863,51,52.59999847,38,92.73999786,33.83000183,50.59000015,326.7200012,90.70999908,38.34999847,167.0500031,67.22000122,76.36000061,308.5499878,27.98999977,37.71500015,83.27947998,202.4299927,166.1499939,39.84999847,32.74000168,48.06000137,84.12000275,26.62000084,60.84000015,82.30000305,116.7799988,190.5099945,144.6000061,75.51000214,65.86000061,63.43999863,136.4700012,32.06000137,90.69999695,48.18000031,112.0699997,18.12000084,57.43000031,179.5800018,159.9700012,20.17000008,189.1000061,38.99000168,96.51000214,20.31999969,55.75,87.11000061,64.69999695,224.4499969,58,46.88000107,25.31999969,54.29000092,54.68999863,50.72000122,98.51999664,100.8000031,19.73999977,53.13000107,24.48999977,30.75,87.51000214,258.3599854,55.40000153,30.62999916,135.4199982,198.9799957,761.2600098,183.2200012,63.65999985,51.81000137,121.6399994,46.84000015,55.31999969,14.85000038,98.48000336,107.5599976,82.36000061,51.06999969,73.62000275,71.05999756,101.5500031,49.56999969,43.29999924,135.6999969,101.4199982,88.09999847,54.68000031,17.54000092,68.91999817,10.82999992,94.12000275,66.84999847,54.97999954,155.0599976,16.96999931,171.5800018,46.13999939,44.56999969,57.81000137,67.27999878,133.3800049,66.02999878,82.51000214,91.30000305,105.3099976,47.72999954,70.48999786,90.69999695,50.97000122,68.80000305,58.93000031,106.75,43.22999954,151.6000061,25.09000015,110.9499969,55.97999954,162.0099945,51.36000061,158.7400055,161.1699982,66.62999725,50.84999847,124.7399979,94.18000031,213.5899963,62.74000168,199.6600037,166.6000061,127.2300034,107.1900024,38.56999969,256.8299866,116.5100021,71.44999695,230.2100067,132.3999939,40.66999817,99.08000183,42.81999969,102.1100006,62.61000061,339.9899902,173.4400024,51.29999924,44.31000137,93.58999634,73.90000153,45.20000076,162.4600067,38.43000031,225.7899933,52.06999969,80.22000122,74.80000305,203.1100006,169.6900024,66.94999695,1209.589966,29.55999947,130.2299957,111.4700012,17.68000031,126.4800034,1095.76001,28.79000092,148.6799927,19.45000076,106.6800003,94.94999695,44.04999924,72.68000031,174.6100006,103.5199966,109.8600006,89.72000122,19.81999969,42.68000031,100.0500031,78.25,65.59999847,25.13108635,91.98999786,72.25,126.1399994,31.71999931,65,67.79000092,139.6100006,103.4700012,376.9200134,28.90999985,155.8099976,74.84999847,36.83000183,43.59999847,27.38999939,106.6800003,142.4299927,177.2700043,88.62999725,43.41999817,78.69000244,65.30999756,124.3899994,18.84000015,66.90000153,163.3999939,68.44000244,47.61000061,36.91999817,62.75999832,36.45000076,58.65000153,61.70999908,257.6799927,82.16999817,39.86000061,84.51864624,1807.25,80.91000366,116.0800018,264.8599854,28.54999924,66.40000153,22.12999916,56.20000076,69.01000214,68.25,144,90.38999939,137.1199951,205.6300049,115.4100037,521.1300049,307.1099854,68.68000031,156.3800049,26.81999969,97.37999725,69.36000061,91.08000183,53.72999954,108.8600006,34.91999817,107.2099991,102.1500015,19.01000023,122.6900024,193.3800049,63.36000061,42.63999939,112.8000031,48.72397614,95.08999634,60.27000046,88.91000366,99.37999725,141.4199982,382.9500122,64,107,44.13999939,72.52999878,16.59000015,35.79000092,55.68999863,73.98000336,153.0700073,64.08000183,81.37000275,275.2600098,264.0499878,184.3300018,77.62000275,238.7200012,1095.76001,15.92000008,270.019989,128.6600037,198.5399933,228,22.12999916,112.7900009,172,122.4599991,85.95999908,100.7699966,56.611763,52.66999817,98.84999847,447.9500122,21.26000023,55.25,68.72000122,116.8899994,67.04000092,77.91000366,111,76.73000336,64.66000366,69.26000214,16.59000015,96.02999878,15.06000042,39.40000153,232.9900055,49.93999863,151.2599945,84.30000305,128.5399933,43.68000031,153.6100006,87.61000061,37.56000137,43.77000046,51.25,46.31000137,15.92000008,244.8800049,103.6500015,73.84999847,112.2799988,42.06000137,63.22000122,272.8399963,70.12999725,41.25,130.2200012,74.25,627.0300293,349.7900085,223.5500031,20.07999992,29.31999969,96.58000183,163.9600067,32.38999939,98.44000244,124.0400009,66.79000092,49.38000107,87.88999939,12.11999989,90.54000092,126.7399979,85.79584503,127.3000031,45.68000031,80.25,221.7700043,151.8200073,233.3000031,62.18999863,26.29999924,33.65999985,86.54000092,128.0800018,59.49000168,97.27999878,161.75,43.58000183,54.68000031,232.6600037,236.8099976,239.9400024,114.0199966,58.34000015,131.6600037,199.25,52.09999847,23.98999977,50.97000122,91.44000244,195.4600067,43.74000168,232.6900024,206.5099945,31.56666756,44,42.95999908
2018/1/5,58.99000168,149.1155396,70.80000305,308.8399963,61.88999939,47.29000092,161.9600067,127.9000015,46.06999969,75.41999817,81.73999786,33.63999939,160.3200073,106.1999969,76.83999634,81.38999939,86.75,13.19999981,204.6999969,17.82692337,51.81999969,112.9599991,162.4900055,61.70000076,68.94000244,118.1699982,27.31999969,175.6999969,78.44999695,56.99000168,79.91999817,240.5700073,91.87999725,150.2700043,46.79000092,30.11000061,118.9199982,108.4499969,118.6699982,36.86000061,38.18999863,70.40000153,56.88000107,91.23999786,49.65999985,190.2299957,199.9700012,62.97999954,46.77999878,109.1200027,137.5299988,131.5700073,35.27000046,168.4799957,29.90999985,44.29000092,32.84000015,107.3430023,421.6600037,181.4600067,72.43000031,73.59999847,57.72000122,145.7299957,59.91999817,38.40000153,174.0500031,86.56999969,69.18000031,222.0800018,141.7100067,97.5,21.75,32.45999908,156.8699951,101.0800018,210.5500031,108.3399963,82.93000031,111.6200027,81.94000244,151.7100067,79.08999634,30.32999992,62.75,66.55000305,44.74000168,58.5,71.2806015,72.91999817,60.65000153,53.40999985,265.9200134,75.09999847,118.3000031,238.25,44.45999908,40.18000031,16.26000023,100.1299973,178.4499969,170.5800018,175,74.55000305,38.06000137,50.36000061,52.47999954,38.13999939,94.73999786,34.54000092,52.15999985,329.6799927,92.41000366,38.59000015,168.4499969,67.86000061,76.94000244,308.2200012,27.87000084,38.57500076,82.69789886,203.8099976,166.0299988,38.41999817,32.54999924,48.25,85.54000092,26.79000092,61.45000076,82.87000275,118.1600037,192.5,144.7799988,75.41000366,65.91000366,63.97999954,137.1799927,31.97999954,91.05999756,48.47000122,110.8399963,17.88999939,57.38999939,180.6499939,161.3699951,20.19000053,187.75,39.52999878,97.11000061,20.32999992,55.99000168,88.19000244,64.31999969,228.7299957,57.58000183,45.79999924,25.96999931,54.59999847,54.83000183,50.61999893,99.30999756,101.8700027,19.89999962,53.11000061,24.47999954,30.95000076,88.47000122,264.3299866,55.15999985,30.70999908,136.5700073,202.3899994,775.5,185.3399963,63.22000122,52.00999832,122.8300018,46.38999939,55.52999878,14.97999954,98.56999969,109.8600006,82.83999634,51.22999954,74,72.16999817,102,49.41999817,43.56999969,134.3999939,101.4300003,87.98999786,54.36000061,17.48999977,68.70999908,10.86999989,94.70999908,66.30000305,55.31999969,157.1600037,17,172.2899933,45.81000137,44.86500168,58.84999847,68.87000275,131.8999939,66.47000122,82.41999817,91.66999817,107.2300034,47.90000153,74.15000153,91.48000336,50.97000122,69.90000153,59.61000061,106.5699997,43.11000061,154.1199951,24.79000092,112.1699982,56.31000137,164.1100006,51.84000015,161.0599976,161.6399994,67.29000092,50.86999893,125.9800034,95.31999969,215.3999939,62.68999863,202.2299957,168.1499939,127.6200027,112.3899994,39.68999863,255.5200043,117.6800003,72,234.3399963,132.1600037,41.04000092,99.91000366,42.56000137,103.1100006,62.56000137,342.4899902,172.8200073,51.47000122,44.54000092,94.02999878,74.51999664,45.40999985,166.4799957,38.22000122,219.8800049,52.49000168,80.83000183,75.44000244,201.9199982,170.2700043,67.58000183,1229.140015,29.10000038,129.9900055,113,17.70000076,127.8600006,1110.290039,28.51000023,149.6499939,20.60000038,104.9899979,95.48999786,44.27000046,73.30000305,174.2599945,104.3799973,110.8700027,89.56999969,19.86000061,43.22999954,101.3099976,78.16000366,65.83000183,25.16853905,92.26000214,72.84999847,127.1200027,31.5,65.08999634,68.13999939,140.5099945,104.3000031,379.0100098,28.76000023,159.0399933,75.52999878,37.27999878,43.66999817,27.44499969,108.0999985,143.7400055,176.5099945,89.70999908,43.40000153,79.20999908,64.87000275,125.5500031,18.94000053,67.83999634,164.4900055,68.26000214,48.25,36.79999924,62.36999893,36.34999847,58.34999847,61.81999969,260.2799988,82.69000244,39.50999832,85.06504822,1823.540039,81.97000122,118.8600006,267.019989,28.72999954,66.69999695,22,56.06000137,70.52999878,71.04000092,144.2599945,89.70999908,136.1799927,209.9900055,115.8600006,525.5700073,313.7900085,69.33999634,157.6699982,26.86000061,99.59999847,69.23000336,91.18000031,55.29000092,111.1399994,34.72999954,108.0299988,102.1600037,18.95000076,122.8000031,196.3999939,63.49000168,42.93999863,114.3700027,48.79785156,95.72000122,59.74000168,91.56999969,101.1100006,143.0899963,385.1000061,64.80999756,109.1900024,44.00999832,73.36000061,16.79999924,36,55.97000122,73.79000092,155.6900024,63.91999817,81.56999969,276.6700134,264.7600098,186.8500061,79.44000244,239.3699951,1110.290039,15.86999989,271.6199951,127.8199997,199.4700012,227.3300018,22,111.9700012,171.3800049,121.2300034,86.93000031,101.2300034,57.51372528,52.65000153,99.86000061,449.4899902,21.22999954,55.20999908,68.02999878,116.2699966,67.30999756,77.83999634,112.1800003,78.69999695,66.37000275,69.36000061,16.79999924,96.87999725,15.05000019,39.74000168,228.1699982,50.06999969,152.2299957,83.90000153,128.3600006,43.88000107,155.6000061,86.75,37.50999832,43.97999954,52.74499893,46.95999908,15.86999989,237.9600067,103.5599976,73.73999786,113,42.02000046,63.50999832,274.9100037,71.62000275,41.08000183,131.7200012,73.40000153,637.3499756,350.8800049,230.5,20.39999962,29.61000061,96.15000153,166.6000061,32.49000168,99.84999847,127.5999985,66.76999664,49.22000122,88.93000031,11.88000011,90.94999695,127,87.0501709,129.3399963,45.95000076,79.29000092,222.3500061,152.4499969,241.0700073,62.99000168,26.45999908,33.88999939,87.69000244,128.4700012,60.63000107,98.55999756,162.8699951,43.99000168,54.86999893,233.75,242.3399963,243.8500061,116.9100037,57.75999832,133.0299988,202.3200073,51.65999985,24.31999969,51.25,92.55999756,197,43.52999878,236.7700043,211.3200073,31.4066658,44.09999847,43.91999817
2018/1/8,58.81999969,148.3104401,71.41999817,310.1499939,61.90999985,47.63000107,166.0299988,128.5299988,46,75.52999878,82.88999939,33.77000046,161.1100006,106.9800034,78.01999664,82.02999878,87.13999939,13.14999962,204.6999969,17.57692337,52.29000092,114.0599976,163.4700012,62.13000107,69.16999817,119.4300003,27.96999931,177.1799927,77.76999664,56.65999985,80.83999634,239.7899933,92.81999969,152.5700073,47.13999939,30.38999939,118.7200012,108.4800034,117.9899979,36.45000076,38.59999847,70.30999756,57.45999908,91.72000122,49.81000137,192.3600006,202.0099945,64.19999695,47.20000076,109.6399994,139.4400024,132.8200073,35.5,169.0500031,30.26000023,45.22999954,33.13000107,106.9729538,424,182.1199951,72.19999695,74.80000305,58.74000168,146.4400024,60.11999893,38.36000061,173.9299927,86.12999725,69.27999878,221.3999939,141.8899994,97.98000336,21.84000015,32.58000183,155.8300018,100.1500015,208.2200012,108.5,83.81999969,110.0199966,82.19999695,152.9600067,78.94000244,30.12000084,62.04000092,67.18000031,44.74000168,58.34999847,72.84368896,73.84999847,60.25,53.77999878,268.6600037,74.86000061,117.9400024,238.25,44.66999817,40.09000015,15.81000042,101.6100006,181.4700012,172.6600037,174.3500061,75.19000244,37.52000046,48.63999939,52.38999939,38.25,93.70999908,34.43999863,52.49000168,328.1600037,93.16999817,38.61999893,168.6300049,68.23999786,76.76999664,308.2600098,28.04000092,37.82500076,82.74636841,205.5500031,167.5700073,38.93999863,32.29999924,48.27000046,85.51000214,26.30999947,61.58000183,81.98999786,118.5999985,192.0399933,145.0500031,74.52999878,66.34999847,64.55000305,136.6999969,32.08000183,91.33000183,48.97999954,111.4199982,17.96999931,58.06999969,180.6000061,161.3099976,20.35000038,188.4799957,39.93999863,97.48000336,20.28000069,56.47000122,88.27999878,64,224.7599945,56.75999832,45.54999924,25.80999947,55.91999817,55.06000137,50.58000183,98.77999878,101.3899994,19.80999947,52.88999939,24.44000053,31.39999962,88.72000122,258.5499878,54.77999878,30.70000076,136.5800018,202.7200012,766.4799805,185.0399933,65.22000122,52.24000168,121.9899979,45.91999817,55.70000076,14.94999981,99.65000153,110.1600037,82.98000336,51.5,73.66999817,72.41000366,102.5,49.63999939,43.91999817,136.3399963,100.8000031,88.05000305,56.90000153,17.46999931,68.27999878,10.86999989,95.25,66.05000305,55.40000153,159.1499939,17.22999954,170.5599976,46.34000015,44.97999954,59.65000153,69.69000244,133.9400024,66.26999664,83.05000305,91.83000183,109.8799973,48.31999969,74.63999939,90.97000122,51.54000092,70.05000305,59.31000137,106.8399963,43.25,155.0700073,25,112.7099991,56.77000046,164.2100067,51.97999954,163.2599945,161.8999939,67.42500305,50.61999893,126.2200012,96.90000153,222,63.11000061,204.7599945,169.25,129.1699982,113.2200012,39.79999924,251.8099976,117.6100006,72.20999908,231.8200073,131.4499969,40.47999954,99.69000244,42.88999939,103.2200012,63.29000092,329.6499939,172.4199982,51.77000046,44.56000137,94.22000122,74.40000153,45.29000092,165.9400024,38.70999908,216.8399963,52.86999893,81.70999908,74.58000183,203.5299988,172,67.23000336,1246.869995,29.18000031,130.9700012,114.3099976,17.79999924,126.7399979,1114.209961,28.78000069,151.7299957,21.48999977,104.1800003,95.73000336,44.84000015,73.37000275,174.3899994,104.9599991,111.4000015,90.77999878,20.38999939,43.00999832,99.69999695,77.56999969,65.87999725,25.51498222,92.62000275,73.12000275,128.2100067,31.68000031,65.48000336,67.95999908,142.0099945,104.1399994,391.8599854,28.90999985,159.2700043,75.66000366,36.84000015,42.72000122,27.73500061,108.8600006,146.3999939,178.5299988,90.66999817,43.72000122,79.95999908,65.43000031,126.6900024,18.96999931,68.30000305,162.3000031,68.16999817,49.66999817,37.04000092,62.59000015,36.40999985,58.45000076,62.25,260,81.44000244,39.09999847,85.14310455,1851.810059,81.22000122,119.3399963,268.1400146,29.17000008,68.56999969,22.37000084,56.63999939,70.58999634,70.05000305,143.5299988,90.41999817,137.6199951,212.0500031,118.1399994,529.4899902,318.4700012,69.38999939,158.9299927,26.29000092,99.80999756,69.48000336,90.12999725,55.31999969,109.0999985,34.66999817,108.3499985,102.0599976,18.86000061,119.6999969,197.8800049,64.02999878,46,114.1100006,48.75083923,94.15000153,60.34000015,91.93000031,99.48999786,142.7400055,372.519989,65.23000336,109.9400024,44.22000122,74.23999786,16.82999992,36.15999985,54.68000031,74.27999878,156.8899994,64.80000305,81.23999786,279.1499939,263.2999878,188.2799988,79.25,238.1600037,1114.209961,15.97999954,272.269989,128.2400055,200.5299988,230.25,22.37000084,110.1500015,172.4499969,121.0899963,86.75,101.25,58.3058815,52.13000107,99.37999725,458.2000122,21.60000038,55.27999878,68.83999634,118.0299988,67.76000214,78.48000336,111.3899994,79.05000305,66.62999725,68.51000214,16.82999992,97,14.81999969,39.25999832,227.0599976,50.43999863,151.4100037,85.16999817,129.9100037,44.06000137,156.0399933,87.5,37.61000061,44.41999817,52.45999908,46.97000122,15.97999954,231.1399994,104.1800003,72.75,114.1500015,41.86000061,63.54999924,276.019989,71.43000031,41.54000092,137.4499969,73.25,633.1799927,356.5499878,231.6499939,20.31999969,29.76000023,96.48000336,165.0800018,32.79000092,100.8099976,129.5299988,67.31999969,48.90000153,89.76000214,12.27999973,91.69000244,127.2799988,86.98097229,130.3099976,46.68000031,80.94000244,218.75,153.7100067,248.8999939,63.29000092,26.47999954,33.09999847,88.19000244,129.5800018,60.49000168,98.59999847,162.8899994,44.91999817,54.65999985,236.0399933,258.8399963,243.5800018,117.3700027,57.40000153,133.2100067,207.8000031,51.72000122,24.59000015,51.72000122,93.12999725,197.1600037,43.54999924,251.0599976,205.9900055,31.71999931,45,44.56999969
2018/1/9,58.91999817,149.5276794,70.58000183,318.4299927,61.84999847,47.29999924,166.4299927,127.8399963,46.22999954,75.63999939,82.01000214,33.65000153,165.6000061,105.6800003,77.20999908,81.98000336,86.76999664,13.07999992,205.8800049,17.84615326,52.11000061,113.7799988,163.8300018,61.49000168,68.77999878,116.8000031,27.77000046,177.2400055,77.69000244,56.79999924,80.12000275,241.2799988,92.12000275,153.6000061,46.59000015,30.05999947,118.2200012,107.6200027,118.0800018,36.40999985,38.15999985,69.56999969,57.93000031,91.05000305,49.63000107,193.6999969,202.75,63.52000046,46.61000061,110.3899994,141,134.2700043,35.25999832,168.3699951,30.19000053,44.84000015,33.88999939,107.2291412,424.2099915,181.9600067,72.31999969,74.90000153,59.25999832,146.1600037,59.31999969,38.11000061,173.5399933,86.05999756,69.37999725,226.4199982,144.1399994,98.94999695,21.80999947,32.72999954,154.2599945,100.5199966,207.8699951,109.0500031,83.62999725,109.9400024,81.23999786,151.8399963,81.68000031,30.27000046,62.25999832,69.13999939,43.61999893,58.45000076,71.6855011,73.41999817,60.63000107,53.81000137,267.75,74.83000183,118.7600021,237.2899933,45.43000031,40.22000122,15.81999969,100.3899994,178.7599945,173.6100006,174.3300018,74.88999939,37.38999939,47.38000107,51.61000061,37.49000168,94.55000305,34.65000153,52.45999908,330.5100098,93.94000244,38.5,169.0599976,67.77999878,77.90000153,310.3900146,27.76000023,37.75,84.04685211,207.3200073,168.8600006,38.75,31.98999977,47.88999939,85.87999725,26.44000053,61.38000107,81.98999786,118.9100037,193.1000061,147.8200073,75.30999756,66.94999695,64.08999634,136.6600037,31.90999985,92.06999969,49.06000137,112.1100006,18.04999924,57.31999969,183.3800049,162.8800049,20.30999947,186.2899933,39.68999863,97.26999664,20.73999977,56.95999908,88.22000122,62.38000107,225.8800049,55.99000168,42.97000122,27.95999908,54.86000061,55.56000137,51.13000107,97.48999786,100.9400024,18.92000008,53.29999924,24.69000053,31.32999992,90.37000275,263.0799866,54.97000122,31.25,136.9199982,206.1000061,770.9500122,186.6999969,67.09999847,53.34000015,122.25,44.54999924,56.16999817,15.22999954,101.4000015,109.1999969,82.76000214,52.09000015,73.20999908,72.08000183,104.2600021,48.97000122,43.65999985,137.7100067,101.6900024,87.69000244,57.02000046,17.78000069,67.81999969,10.76000023,98.61000061,67.62999725,55.77999878,160.6399994,16.54000092,175.6499939,45.70999908,45,59.66999817,69.77999878,134.1399994,65.26999664,82.01999664,91.63999939,111.75,47.95000076,74.83999634,91.19000244,52.27000046,71.76999664,59.18000031,106.5400009,42.54000092,156.1199951,24.70000076,111.7099991,56.63000107,164.8500061,52.36000061,160.7799988,161.2200012,68.14499664,51.81000137,124.1900024,97.51999664,221.9400024,62.34999847,208.9600067,165.5299988,129.1100006,112.1800003,39.52999878,253.9400024,119,72.97000122,234.6600037,132.4700012,40.61000061,101.1399994,41.97999954,103.1200027,62.65000153,336.3599854,174.9100037,52.47000122,44.29000092,94.09999847,78.09999847,45.34999847,170.5399933,38.24000168,222.0800018,52.83000183,82.26000214,73.73000336,201.1499939,174.0800018,66.66999817,1252.699951,29.04000092,131.6999969,112.9700012,17.21999931,125.4000015,1112.790039,28.62999916,152.6300049,21.04000092,105.4899979,96.04000092,45.15000153,73.45999908,173.0700073,104.9899979,112.9300003,91.45999908,20.44000053,42.99000168,99.11000061,78.23999786,67.48999786,25.84269714,92.51000214,74.05000305,127.2799988,31.27000046,66.05000305,67.70999908,141.0500031,104.8899994,397.6000061,29.12000084,159.5,77.47000122,37.20000076,42.47000122,27.68000031,109.1500015,145.6199951,177.9499969,90.80999756,43.29999924,80.16999817,64.91000366,126.7900009,19.06999969,65.44999695,163.3999939,67.98000336,49.38999939,36.83000183,61.36999893,36.40000153,57.68999863,61.77999878,261.2600098,80.62000275,38.63999939,85.1084137,1865.290039,80.51000214,119.1100006,270.3200073,28.71999931,68.20999908,21.64999962,56.49000168,71.69999695,69.80000305,145.8500061,90.88999939,137.8399963,209.3099976,119.5100021,533.9400024,319.3699951,69,159.4600067,26.11000061,98.81999969,69.5,90.83999634,55.74000168,109.6900024,34.59000015,107.6800003,101.7200012,18.94000053,121.8000031,197.5700073,65.48000336,46.38999939,115.1500015,48.94560242,94.25,59.84999847,92.75,100.2399979,141.1600037,368.6499939,63.54000092,110.4700012,44.04999924,75.11000061,16.87999916,36.33000183,54.16999817,74,156.0099945,63.81999969,82.93000031,279.7900085,267.9599915,187.8699951,79.48999786,236.2700043,1112.790039,15.10999966,268.5,127.6100006,200.2700043,228.0099945,21.64999962,110.7900009,172.4299927,123.1500015,86,100.6800003,57.60784149,52.08000183,98.62999725,455.980011,21.72999954,54.25,69,120.3099976,67.40000153,78.62000275,110.4899979,79.19000244,66.19000244,68.48000336,16.87999916,96.73000336,14.85000038,39.43999863,242.8000031,50.38999939,151.8300018,83.11000061,125.4400024,44.18999863,154.9900055,86.70999908,36.93999863,44.22000122,52.98500061,46,15.10999966,232.9199982,104.8099976,71.29000092,112.5999985,41.99000168,63.63000107,282.4100037,70.31999969,40.90999985,135.4400024,73.77999878,649.9899902,354.7600098,234.25,20.59000015,29.80999947,95.01000214,165.7299957,32.38000107,96.29000092,130.7899933,65.90000153,48.56999969,89.69000244,11.81999969,93.15000153,126.3199997,87.91522217,128.9499969,46.79999924,81.93000031,216.9499969,155.1399994,251.4400024,63.24000168,26.22999954,33.63000107,88,127.9000015,61.70999908,98.54000092,163.5500031,45.06999969,54.93999863,239.1999969,256.2000122,246.8899994,114.9100037,68.02999878,134.1000061,209.7599945,52.25,24.17000008,51.25999832,93.30999756,196.9100037,43.47999954,249.9799957,206.8500061,31.76000023,44.31999969,45.15000153
2018/1/10,58.83000183,150.5628052,69.5,320.2600098,62.00999832,45.81999969,165.8699951,128.6600037,46.06999969,74.81999969,80.91999817,33.33000183,164.9400024,104.6399994,76.20999908,82.47000122,86.08000183,13.02999973,204.75,18.20192337,52.47000122,110.8199997,164.1799927,61.61999893,67.01999664,114.9599991,27.98999977,175.6100006,77.44000244,57.29999924,79.48000336,241.1399994,92.37999725,151.6100006,46.13000107,29.81999969,116.6100006,107.1900024,117.4800034,36.47000122,37.95000076,70.29000092,57.65000153,90.47000122,49.40000153,193.4799957,202.1300049,62.84000015,45.95999908,109.6999969,139.6999969,134.8999939,34.83000183,166.2100067,30.35000038,44.54999924,33.47000122,105.6066132,419.5299988,180.5599976,72.58999634,75.59999847,58.47999954,144.4299927,58.63000107,38.34000015,173.5099945,86.09999847,68.43000031,224.5599976,143.9700012,99.40000153,22.04999924,32.75,153.7799988,101.2200012,207.0899963,110.25,85.20999908,109.4700012,80.11000061,150.5899963,82.79000092,30.54999924,63.11999893,70.73000336,42.5,58.40000153,71.67608643,74.08000183,61,54.06000137,268.0100098,74.11000061,117.6500015,231.75,44.70999908,39.90999985,15.68000031,99.66999817,180.3899994,171.0399933,174.2899933,74.25,36.83000183,48.33000183,51.68999863,36.61999893,94.16999817,33.66999817,53,331.0499878,92.30999756,37.84999847,168.3500061,68.94000244,77.13999939,307.6099854,27.26000023,38.13499832,82.95638275,206.6100006,167.3099976,39.06000137,32.02999878,49.20000076,85.48999786,25.96999931,61.34999847,81.16000366,118.5899963,191.8000031,149.6199951,75.65000153,67.69999695,64.22000122,135.1199951,31.14999962,92.76000214,48.79999924,111.4700012,17.89999962,56.47999954,182.8600006,162.6199951,20.89999962,185.4199982,39.90999985,97.25,21.01000023,57.52000046,87.81999969,62.95999908,224.1999969,56.65999985,43.31000137,27.52000046,53.29999924,57.29999924,51.20999908,96.79000092,100.4300003,19.51000023,53.93000031,25.60000038,30.89999962,91.30999756,263.1000061,55.04000092,31.57999992,136.6600037,206.2899933,767.7800293,187.1100006,68.05999756,53.56000137,121.1800003,43.99000168,55.68000031,15.47999954,104.25,106.2799988,82.55000305,52.70999908,72.19000244,72.69999695,105.7600021,48.65999985,43.27000046,137.6999969,103.1399994,87.26999664,58.84000015,18.07999992,67.54000092,10.77999973,98.23999786,67.94999695,56.20000076,160.6699982,17.47999954,173.9900055,44.97999954,45.36999893,60.65000153,70.33999634,132.3999939,65.26000214,80.56999969,90.11000061,112.2699966,47.47999954,74.09999847,90.81999969,52.15000153,70.79000092,59.81999969,105.8399963,42.18000031,154.8099976,24.12999916,112.0100021,55.79000092,163.5099945,53.02999878,159.5399933,160.3300018,68.50499725,52.34999847,122.5299988,97.20999908,223.6799927,61.45999908,207.3200073,164.9799957,129.7899933,112.25,37.70000076,254.3300018,121.5100021,73.37999725,233.8899994,132.1100006,41.09000015,100.3700027,41.45999908,101.5800018,61.43999863,336.7200012,176.75,52.68999863,44.38999939,94.15000153,78.70999908,45.22999954,170.4700012,37.93000031,219.3600006,50.97000122,81,72.66000366,196.1100006,175.8300018,68.26000214,1254.329956,29.15999985,130.3200073,111.9599991,17.12999916,124.6500015,1110.140015,28.39999962,152.8999939,21.22999954,105.4599991,97.27999878,44.27000046,73.97000122,170.9600067,104.9800034,111.6800003,91.44000244,20.64999962,42.63000107,96.48999786,79.47000122,66.33000183,26.06741524,90.94999695,74.45999908,127.1800003,31.34000015,65.44000244,67.80999756,137.6100006,105.6299973,423.7600098,27.95999908,159.8600006,78.06999969,36.81999969,42.41999817,27.20499992,108.8000031,145.1499939,178.6999969,89.51000214,42.47000122,81.23000336,63.66999817,124.1600037,19.25,62.75999832,162,67.52999878,49.70999908,36.54999924,60.70999908,35.38999939,56.84000015,61.31999969,258.4500122,80.91000366,38.13999939,84.57936096,1872.910034,80.68000031,118.9800034,268.769989,28.23999977,68.26999664,22.82999992,56.74000168,72.34999847,70.30000305,145.2899933,90.98000336,139,212.5200043,118.5,531.5700073,321.7999878,69.51000214,158.8999939,25.90999985,98.51999664,69,90.08000183,54.50999832,109.6299973,34.49000168,104.9199982,102.0800018,18.87999916,121.4599991,191.6600037,63.59000015,47.06999969,115.0299988,49.30154419,94.77999878,60.47000122,90.45999908,99.69000244,140.9400024,366.4599915,63.02999878,106.5400009,43,73.91000366,16.85000038,36.25999832,55.86000061,73.72000122,157.3800049,63.91999817,82.59999847,272.0899963,272.0899963,187.8399963,78.52999878,232.2200012,1110.140015,15.06000042,262.8299866,125.5500031,198.3800049,226.6300049,22.82999992,110.3600006,173.1999969,123.0599976,84.95999908,98.59999847,57.0901947,53.77999878,96.08000183,443,21.64999962,53.06000137,67.73999786,120.1100006,67.41000366,77.88999939,110.5899963,79.37000275,66.83000183,73.08000183,16.85000038,96.33999634,15.18999958,39.65999985,242.5899963,49.79000092,153.6100006,82.36000061,123.8399963,44.90000153,154.5099945,85.69999695,36.40999985,43.56000137,52.90000153,46.27999878,15.06000042,230.4499969,103.5699997,72.05000305,109.5400009,42.24000168,63.56999969,281.230011,69.08000183,40.18999863,132.9600067,73.01999664,646.1900024,350.8299866,230.9900055,20.52000046,29.79000092,93.91000366,166.1399994,32.83000183,96.62000275,132.3300018,65.33999634,48.40999985,89.33999634,11.96000004,94.40000153,125.2799988,87.56920624,128.1600037,46.97000122,81.65000153,219.9700012,152.1100006,248.3099976,63.40999985,25.87000084,33.91999817,87.09999847,128,64,98.87000275,160.8899994,44.84000015,55.59999847,237.3300018,254.5299988,249.6499939,115.5500031,68.90000153,133.75,208.1399994,51,24.25,51.27999878,92.98000336,200.9100037,43.52000046,252.2799988,205.6600037,31.45999908,44.09999847,44.34000015
2018/1/11,58.95000076,151.3583069,68.73000336,328.1199951,62.47000122,45.75,169.1999969,132.5700073,46.04000092,74.55000305,80.38999939,33.75999832,167.4600067,103.9300003,76.20999908,83.98999786,86.93000031,13.15999985,205.5099945,18.28846169,53.33000183,110.0899963,164.1999969,62.22999954,65.98000336,112.6999969,28.07999992,176.3999939,79.01999664,57.59999847,79.16999817,242.3099976,93.55000305,154.0299988,45.52000046,30.23999977,117.5699997,106.6999969,116.8799973,36.56000137,38.40999985,70.29000092,59.18000031,90.15000153,50,193.3500061,206.1399994,62.31999969,45.25,110.6699982,140.3500061,134.9900055,34.99000168,169.0299988,31.86000061,43.88000107,33.59000015,107.0583496,425.3599854,183.8999939,73.87999725,77.05000305,58.68999863,141.9900055,58.09000015,38.84000015,173.3899994,86.38999939,68.45999908,225.8200073,144.7899933,101.9000015,22.40999985,33.09999847,153.5299988,100.7300034,210.8899994,110.8399963,84.48999786,110.9899979,79.27999878,150.5,83.90000153,30.65999985,63.00999832,74,43.40999985,59.09000015,72.68361664,75.37999725,61.15000153,56.15000153,271.1900024,75.56999969,117.1800003,237.7200012,45.72999954,40.56000137,15.47999954,100.0199966,183.7599945,172.5299988,175.2799988,75.81999969,36.75999832,50.00999832,52.11000061,36.47999954,95.73999786,34.52000046,54.72000122,331.1300049,92.41000366,38.38000107,169.9700012,70.18000031,77.62000275,309.5499878,27.43000031,38.43999863,83.61066437,208.3500061,169,39.56000137,33.18999863,50.09000015,85.73000336,26.07999992,61.22000122,81.01999664,119.5699997,194.6799927,151.4900055,75.55999756,67.86000061,64.29000092,137.0299988,31.90999985,92.86000061,48.95000076,113.2600021,18.60000038,56.15000153,181.9600067,163.8099976,21.45999908,189.3800049,40.09999847,97.5,21.19000053,58.22000122,88.08000183,64.83999634,225.3899994,57.77999878,42.81999969,27.43000031,53.20000076,57.83000183,51.50999832,97.59999847,100.7799988,19.87999916,54.20000076,26.29999924,30.87999916,92.51999664,265.2099915,55.09000015,31.86000061,135.2700043,208.6600037,773.3099976,188.9199982,69.11000061,54.16999817,121.4899979,46,55.65999985,15.63000011,105.7799988,106.2399979,82.48999786,53.15999985,72.76999664,74.31999969,105.9499969,48.65000153,43.93999863,139.4299927,104.4199982,88.18000031,61.11999893,18.20000076,66.86000061,10.96000004,98.58999634,68.80000305,56.68000031,162.3000031,17.46999931,177.1199951,44.38999939,45.84500122,61.81000137,71.70999908,135.1799927,65.43000031,79.91999817,91.19000244,113.0599976,48.56999969,74.33999634,89.80999756,53.63000107,70.80000305,60,107.4599991,43.06999969,155.7200012,24.12999916,115.1399994,56.59000015,163,53.49000168,158.6000061,162.0500031,68.91500092,53.11000061,122.2900009,98.13999939,224.0800018,60.95999908,207.7299957,164.8300018,133.4600067,112,37.81000137,255.1300049,123.7200012,73.87999725,235,132.3399963,42.59999847,101.0199966,40.95000076,101,61.65000153,333.0700073,177.9900055,52.95999908,46.70999908,94.55000305,79.05999756,45.52000046,170.2799988,38.84000015,219.0500031,52.04000092,79.95999908,72.87999725,196.1199951,178.9799957,69.56999969,1276.680054,30.80999947,129.0899963,112.2300034,17.01000023,123.8600006,1112.050049,28.76000023,152.8099976,21.18000031,104.5800018,97.77999878,45.11999893,74.01000214,169.7700043,105.9400024,111.5299988,93.91999817,20.56999969,42.50999832,95.79000092,80.36000061,65.20999908,26.19850159,92.11000061,74.37999725,129.4100037,32.13999939,66.38999939,69.5,134.9700012,104.8600006,421.3699951,28.39999962,160.9199982,80.02999878,37.29999924,43.72000122,27.54500008,109.0999985,145.3000031,184.1699982,90.79000092,43.47000122,80.45999908,63.58000183,123.1500015,19.47999954,64.25,162.5,68.26000214,50.25999832,36.58000183,60.16999817,34.34000015,56.22999954,61.52000046,259.75,82.25,39.06999969,84.8915863,1893.099976,82.55999756,119.8399963,272.5,28.61000061,70.04000092,24.01000023,58.36000061,72.63999939,71.91000366,144.5,91.98999786,139.7700043,217.2400055,119.9899979,537.9199829,325.5,70.25,159.1100006,27.06999969,99.26000214,69.97000122,91.98999786,55.90999985,111.3499985,35.27999878,103.6900024,102.3700027,19.20000076,122.4800034,189.1199951,63.95999908,49.00999832,117.6999969,49.7850914,98.19000244,61.41999817,92.05999756,99.26999664,142.5800018,368.2600098,63.09999847,107.6500015,44.18999863,74.58999634,17.07999992,36.29999924,58.52000046,74.56999969,158.3999939,64.44000244,84.37999725,271.7200012,273.6199951,187.7700043,78.48999786,232.4400024,1112.050049,15.30000019,263.5,127.6500015,200.7200012,229.6399994,24.01000023,114.9300003,179.9900055,125.4100037,86.97000122,99.91999817,57.49019623,56.41999817,95.73000336,435.3900146,22.34000015,53.27999878,68.87999725,120.9300003,68.26000214,77.12999725,112.9499969,79.75,69.23999786,76.44999695,17.07999992,96.66999817,15.44999981,39.75999832,240.0399933,49.36999893,154.7599945,82.25,123.2099991,45.29999924,157.8600006,84.73999786,36.08000183,43.54999924,53.38999939,46.29999924,15.30000019,233.1499939,104,74.80999756,107.9400024,42.99000168,63.40000153,287.5100098,69.77999878,39.84000015,134.6900024,73.70999908,639.2600098,355.269989,228.6399994,20.52000046,30.39999962,92.06999969,171.5099945,34.00999832,93.05999756,132.1900024,64.37000275,49.25,89.70999908,12.14000034,95.16999817,125.0999985,87.44809723,129.6100006,47.45999908,83.06999969,222.8099976,152.2100067,252.9100037,64.75,25.62999916,35.11000061,87.04000092,129.2400055,65.25,99.86000061,157.5,44.86999893,56.15999985,239.2700043,258.3299866,250.6499939,116.9800034,69.87999725,134.7599945,210.1499939,50.66999817,24.35000038,51.5,93.44999695,202.5800018,44.5,260.7900085,205.8899994,31.79333305,44.25999832,44.91999817
2018/1/12,58.84000015,152.4605255,67.45999908,336.2099915,62.81000137,45.50999832,170.3000031,133.6000061,46.15000153,74.62000275,79.48999786,34.65999985,169.3000031,103.9199982,75.94000244,84.23999786,87.51999664,13.22999954,210.5899963,18.03846169,53.13999939,109.2699966,163.1399994,62.25999832,64.69000244,112.9800034,28.13999939,177.6399994,78.77999878,58.65999985,78.22000122,244.4700012,96.56999969,154.3399963,45.15000153,30.06999969,118.1699982,106.8899994,117.3799973,36.54000092,38.38999939,69.61000061,60.04999924,89.61000061,50.09999847,197.4600067,207.9199982,61.41999817,44.84000015,112.7200012,141.1699982,136.5800018,35.25999832,172.75,32.77000046,43.81999969,33.90999985,107.3287735,432.8399963,184.1799927,73.91000366,77.97000122,59.25,140.9600067,57.84999847,39.79000092,173.5700073,86.98000336,68.33999634,227.7100067,145.7599945,103.2799988,22.92000008,33.20999908,153.6999969,100.9700012,213.3899994,112.6699982,84.87999725,112.4700012,78.90000153,150.3200073,84.37000275,31.19000053,62.54999924,76.80000305,43.24000168,60.15000153,73.25800323,76.06999969,60.97000122,57.06999969,271.8500061,76.40000153,118.4700012,235.6699982,45.75999832,40.5,15.28999996,100.8700027,183.5899963,173.4199982,177.0899963,76.52999878,36.70999908,49.66999817,51.86000061,36.90000153,100.8600006,34.47999954,54.54000092,336.25,92.44999695,37.90000153,170.1499939,69.01999664,78.88999939,315.1499939,27.37000084,39.13999939,84.11954498,210.0399933,170.5200043,39.79999924,33.86999893,51.81999969,85.44999695,26.36000061,61.38000107,81.73999786,119.3499985,196.4199982,151.8399963,76.83999634,68.88999939,64.66999817,137.6799927,32.25999832,92.25,49.50999832,115.9100037,18.81999969,55.52000046,185.0399933,164.1499939,21.73999977,191.8399963,40.86999893,97.43000031,21.42000008,58.59000015,89.59999847,65.36000061,228.6399994,58.83000183,42.81000137,27.45999908,53.45000076,58.41999817,52.77999878,98.01999664,102.1100006,19.75,55.11999893,26.88999939,31.07999992,93.04000092,268.019989,55.29000092,32.34999847,136.5500031,210.1699982,787.9299927,195.0500031,71.48999786,55.38999939,122.8499985,47.15999985,55.93999863,15.85000038,107.2399979,107.2900009,83.62000275,53.13999939,74.02999878,75.91999817,107.2600021,48.86000061,44.52999878,139.7799988,105.4300003,88.26999664,63.86999893,18.28000069,67.66000366,11.03999996,99.38999939,69.69000244,56.97999954,166.25,17.36000061,176.0500031,44.00999832,42.47000122,62.77000046,73.25,133.9700012,65.37999725,79.22000122,92.01999664,115.3499985,48.79999924,74.66000366,90.04000092,54.40999985,71.73000336,60.40000153,108.4599991,44.04000092,157.25,24.06999969,115.6999969,56.36000061,164.5099945,53.33000183,158.2299957,160.4600067,68.61000061,53.27999878,122.0999985,99,222.9799957,60.41999817,209.75,165.5099945,134.0899963,113.1299973,38.02000046,257.0299988,124.1200027,74.20999908,239.8200073,134.7299957,42.43999863,101.6299973,40.61999893,101.0100021,61.84999847,335.9500122,178.5200043,53.93999863,46.90000153,96.75,79.01999664,45.77999878,171.6399994,39.13999939,217.5200043,51.90999985,79.90000153,71.91999817,193.5500031,182.0399933,69.26000214,1305.199951,33.75999832,128.5299988,113.6100006,16.76000023,122.3300018,1130.650024,28.88999939,152.7299957,21.12000084,106,97.61000061,44.88999939,74.55999756,168.2299957,106.7900009,108.4899979,94.27999878,20.36000061,42.47000122,95.38999939,80.51000214,65.51999664,26.15168571,93.44000244,74.77999878,132.3600006,32.22999954,66.73000336,69.55999756,133,104.5,419.0400085,28.87999916,162.3300018,79.12999725,37.86000061,43.52000046,27.79500008,110.2399979,147.2100067,186.1499939,91.83000183,44,81.43000031,63.63000107,123.4300003,19.47999954,65.79000092,165.5399933,68.37999725,50.27999878,36.22000122,59.15999985,34.54999924,54.83000183,61.34999847,258.6000061,83.12000275,39.43999863,84.8915863,1919.400024,83.58000183,120.0899963,275.2799988,28.70000076,70.26000214,24.32999992,58.66999817,72.90000153,72.33000183,145.6399994,91.09999847,141.8099976,221.2299957,120.8300018,555.5300293,327.3399963,71.41999817,160.1100006,27.21999931,100.1699982,70.45999908,91.80000305,57.22999954,114.8399963,36.54000092,103.5699997,104.9700012,19.52000046,122.7099991,188.5099945,63.77000046,51.25999832,117.6800003,49.53660202,99.09999847,61.95999908,92.91000366,100.3399963,143.6300049,366.9599915,62.97000122,110.4000015,44.06999969,75.38999939,17.14999962,37.45999908,59.83000183,75.19999695,157.9299927,65.23999786,85.04000092,274.0700073,276.3699951,179.3699951,79.61000061,227.1000061,1130.650024,15.11999989,264.2900085,127.1399994,202.8000031,230.7599945,24.32999992,116.6500015,180.8899994,127.5299988,88.80000305,101.2099991,58.69804001,58.47000122,95.47000122,435.9500122,22.42000008,52.72000122,71.04000092,121.0599976,69.19999695,77.34999847,115.9400024,80.54000092,70.36000061,78.40000153,17.14999962,97.5,15.81000042,39.36999893,244.7200012,49.02000046,155.4600067,82.25,122.8099976,45.52000046,159.0899963,80.83000183,35.70000076,43.70999908,54.74000168,47.45000076,15.11999989,237.3200073,103.2600021,73.51999664,105.7799988,43.47000122,63.88000107,292.5,70.62000275,39.52999878,133.5200043,74.47000122,650.5999756,354,230.8399963,20.78000069,30.84000015,91.31999969,173.2400055,34.79999924,94.06999969,131.5099945,64.05999756,49.47999954,90.37000275,12.02000046,96.79000092,125.1200027,87.62110901,130.1300049,47.84999847,83.94999695,224.1999969,154.2200012,258.4299927,65.31999969,25.70999908,35.02999878,87.77999878,128.3200073,65.36000061,100.0400009,155.9400024,45.06999969,57.84999847,247.4299927,258.269989,253.1799927,117.3000031,72,135.8899994,215.1100006,50.29000092,25.40999985,52.50999832,94.04000092,203.2700043,44.84999847,259.0299988,211.4700012,31.74666595,44.93999863,44.81999969
2018/1/16,58.43999863,151.3295593,67.5,335.1600037,59.91999817,46.43999863,169.3099976,132.0099945,46.52999878,75.41999817,79.01999664,34.40999985,167.5399933,104.1399994,75.26999664,83.34999847,86.97000122,13.10000038,206.3300018,17.50961494,52.13000107,108.2900009,163.8500061,61.22999954,65.94000244,114.2600021,28.25,175.8300018,79.44000244,62.06999969,77.66999817,244.7400055,95.86000061,153,45.29000092,29.92000008,116.6399994,107.0599976,117.8600006,36.59999847,38.47000122,68.91999817,58.84000015,90.22000122,49.54999924,195.7299957,205.0200043,61.33000183,44.65999985,112.9199982,140.3099976,133.9700012,34.75999832,168.9499969,32.34999847,44.02000046,33.5,106.6740646,423.8699951,182.5500031,72.83000183,77.16999817,58.13000107,142.4100037,58.43000031,40,173.6799927,85.29000092,67.66999817,228.5399933,146.8600006,102.8000031,22.87999916,32.59000015,152.5399933,100.3399963,214.75,112.2699966,84.72000122,110.6900024,78.41999817,150.5399933,82.51000214,31.23999977,62.5,74.95999908,43.13999939,58.77999878,72.20339203,76.02999878,61.06000137,58.02999878,269.5799866,75.97000122,119.3899994,231.8099976,45.24000168,40.77999878,15.11999989,100.6900024,180.6699982,171.0099945,176.1900024,75.26999664,36.77000046,48.99000168,51.65999985,36.72000122,100.9700012,33.75999832,53.54000092,330.1099854,91.38999939,38.38999939,166.75,68.94999695,78.52999878,312.5400085,27.52000046,38.29499817,83.48950195,209.9100037,169.2200012,40.16999817,32.70999908,50.18000031,85.31999969,26.62999916,61.72000122,81.26000214,117.3799973,196.3099976,152.2599945,77.11000061,68.30000305,63.41999817,137.0200043,31.75,91.41999817,49.59000015,111.9800034,18.23999977,55.45999908,185.5399933,162.1000061,21.21999931,191.5299988,40.54000092,96.80999756,21.31999969,55.54000092,88.34999847,65.47000122,232.8999939,59.43000031,42.91999817,26.97999954,54.5,57.54000092,52.18999863,96.73999786,102.1299973,19.31999969,54.59999847,25.92000008,31.26000023,93.79000092,270.1700134,55.24000168,32.27999878,134.5399933,208.0099945,781.0200195,192.4600067,72.58000183,55.52999878,122.1600037,46.27000046,56.27000046,15.68000031,105.9700012,107.6600037,82.93000031,53.08000183,74.19999695,74.31999969,106.6100006,48.43000031,43.79000092,139.1199951,104.4199982,88.16000366,63.40000153,18.15999985,68.26000214,10.68000031,99.47000122,68.51999664,57.16999817,170.6600037,17.34000015,178.6600037,44.25999832,43.19499969,62.27000046,72.40000153,133.6900024,68.25,78.86000061,93.09999847,114.4700012,48.43999863,73.76999664,89.95999908,51.97999954,71.23000336,60.56000137,107.5800018,43.25999832,155.5299988,24.03000069,113.3899994,55.70000076,162.2899933,51.84999847,159.4700012,161.2200012,68.75499725,52.90000153,121.6800003,99.55000305,220.1100006,60.66999817,208.9400024,165.0399933,132.8800049,111.9199982,37.68000031,258.4599915,122.0899963,72.90000153,241.75,135.5200043,41.81999969,101.2200012,40.70999908,101.2900009,62.13999939,338.8500061,177.7799988,53.66999817,46.63999939,96.15000153,80.25,45.90000153,171,38.47000122,217.7599945,50.83000183,78.66999817,71.20999908,193.75,177.3099976,68.77999878,1304.859985,31.37999916,128.6600037,112.6500015,16.54999924,121.5599976,1130.699951,28.61000061,152.1999969,20.62000084,104.8199997,97.16999817,44.65000153,74.73000336,169.0299988,104.4199982,108.0800018,92.97000122,20.31999969,42.99000168,93.88999939,78.94000244,64.5,25.79587936,93.33000183,74.58000183,130.6000061,31.67000008,65.47000122,69.41999817,135.6300049,104.8700027,420.0700073,28.03000069,162.2899933,79.15000153,37.20000076,40.70999908,27.71999931,108.8899994,145.7700043,182.5099945,91.27999878,45.04999924,80.41999817,63.15000153,124.0100021,19.38999939,65.65000153,168.7299957,68.08999634,50.34000015,36.22999954,59.25999832,34.72000122,54.52000046,60.95000076,257.8900146,83.87999725,38.68999863,82.37641144,1919.469971,80.87000275,120.3899994,274.8800049,27.89999962,69.73000336,24.53000069,58.79999924,70.62000275,71.33000183,145.6699982,90.26000214,140.5200043,221.5299988,120.0699997,563,327.3699951,70.77999878,157.9600067,25.68000031,100.1100006,70.54000092,90.86000061,56.31999969,112.8799973,35.88999939,105.3199997,103.5,19.38999939,124.4800034,190.3899994,64.55999756,51.50999832,115.8899994,49.40228271,98.44000244,61.45000076,92.55999756,102.4899979,141.3999939,370.2099915,61.56000137,111,44.18999863,75.54000092,16.96999931,37.09999847,59.34999847,74.91000366,155.7100067,63.84000015,84.06999969,274.4899902,258.0700073,178.3899994,79.18000031,227.6000061,1130.699951,13.81000042,263.25,125.8300018,203.0099945,226.1900024,24.53000069,116.4199982,178.9700012,126.75,88.79000092,99.86000061,59.63921738,57.97999954,94.98999786,448.1000061,22.10000038,52.93999863,69.30000305,120.6399994,68.69000244,78.63999939,113.9000015,80.41999817,68.70999908,77.48999786,16.96999931,97.19999695,15.81000042,37.93000031,241.4199982,49.25,152.5800018,82.70999908,122.0500031,45.25,156.7200012,82.22000122,36.06999969,43.75,54.65000153,46.95999908,13.81000042,237.1199951,104.5999985,71.27999878,107.4800034,43.18999863,63.41999817,293.8500061,70.40000153,39.56000137,128,73.98999786,649.4199829,352.9299927,230.9600067,20.39999962,30.40999985,92.19999695,176.1000061,33.38999939,91.65000153,130.7899933,63.65999985,47.99000168,89.26999664,11.90999985,95.59999847,124.9300003,87.42214203,130.0399933,47.99000168,83.40000153,222.75,153.3899994,263.8800049,65.06999969,25.79999924,36.02999878,87.86000061,125.8799973,63.22000122,99.93000031,159.8500061,44.27999878,57.38999939,235.1499939,260.2900085,251.6999969,113.9599991,69.73999786,134.3300018,218.0899963,50.84000015,24.65999985,52.25,94.06999969,201.8000031,44.31999969,252.7700043,210.1999969,31.65999985,44.34000015,44.75
2018/1/17,58.99000168,151.8279572,68.25,351.0100098,61.84999847,46.95999908,168.5,132.3600006,46.81999969,76.68000031,79.26999664,34.83000183,167.4299927,104.0899963,75.5,83.59999847,88,12.18000031,208.5200043,16.68269157,52.84999847,108.9300003,168.6499939,61.49000168,66.51000214,116.6600037,28.67000008,176.7899933,79.5,62.02999878,78.51000214,248.1100006,97.27999878,154.0500031,45.68999863,29.92000008,114.5,106.5899963,119.1800003,37.18000031,39.09000015,70.15000153,59.86000061,91.19999695,50.27000046,196.9900055,206.5599976,61.70999908,45.04999924,119.1600037,140.4600067,134.4199982,35.20999908,171.3800049,31.92000008,44.20000076,34.36999893,107.8411484,426.9400024,183.6900024,73.06999969,77.20999908,57.68999863,144.3200073,59.11999893,39.45000076,174.9799957,86.20999908,68.19999695,231.3699951,146.9799957,103.4800034,23.45999908,32.52000046,156.5500031,100.7600021,220.3600006,112.9899979,84.68000031,111.9700012,78.41000366,151.8800049,82.98000336,31.18000031,63.88000107,76.81999969,44.38999939,59.16999817,73.57815552,75.77999878,61.41999817,58.13000107,271.4899902,76.54000092,122.0500031,225.2299957,45.83000183,40.90999985,15.15999985,102.6999969,181.1699982,173.7599945,179.1000061,75.86000061,37.25999832,48.95000076,51.72000122,36.84999847,101.6800003,34.40000153,54.02000046,334.8599854,91.62000275,39.04000092,168.5599976,69.26000214,79.65000153,317.5100098,27.87999916,38.29000092,84.28109741,210.8000031,171.0200043,39.52999878,33.25999832,50.97000122,86.11000061,26.47999954,62.20000076,81.52999878,118.8799973,199.8200073,154.2299957,77.47000122,68.34999847,63.81000137,137.4299927,31.78000069,92.02999878,50.27000046,113,18.84000015,55.79000092,188.0099945,163.4600067,21.57999992,192.2899933,41.20000076,96.86000061,21.26000023,56.34999847,90.13999939,66.06999969,238.4299927,58.90000153,44.25999832,27.25,57.34000015,57.88999939,52.34999847,97.45999908,103.9400024,19.77000046,55.34999847,26.23999977,31.56999969,94.76000214,275.75,56.22999954,32.49000168,136.5,211.4799957,788.0599976,196.4900055,72.65000153,56.09000015,123.2200012,46.52999878,57.22999954,15.76000023,106.4000015,113.4899979,83.08999634,53.27999878,75.05999756,75.5,106.8899994,48.5,44.90000153,142,104.3899994,88.52999878,64.58999634,18.36000061,69.63999939,10.72000027,99.58999634,69.44999695,56.34000015,172.8300018,17.43000031,176.7200012,44.54999924,43.90999985,63.59000015,74.26000214,134.5800018,68.01999664,79.52999878,95.56999969,116.3799973,48.5,75.86000061,91.19000244,52.50999832,72.05999756,60.65999985,108.9899979,43.43999863,157.4100037,24.14999962,113.5299988,57.11999893,164.2899933,52.54999924,160.2700043,162.6699982,69.125,53.31999969,122.4899979,101.3000031,224.7200012,60.84999847,209.1600037,167.3999939,134.0099945,113.1399994,37.99000168,253.6499939,123.4400024,73.44999695,249.1499939,136.8600006,41.68000031,101.4899979,40.95999908,102.6500015,62.86000061,344.8699951,179.2100067,54,46.77999878,97.55999756,81.73999786,46.99000168,172.6499939,38.91999817,219.2200012,52.09999847,79.25,71.30000305,195.6900024,178.4700012,70.70999908,1295,31.95999908,132.0599976,114,16.60000038,122.5,1139.099976,28.67000008,151.4499969,20.23999977,102.0199966,97.59999847,44.99000168,75.83999634,169.9100037,106.0500031,109.3199997,92.98000336,20.93000031,43.86000061,94.80999756,78.93000031,65.40000153,26.04868889,96.01999664,74.80000305,130.6399994,31.88999939,66.06999969,69.58000183,136.6399994,105.7900009,431.1000061,27.97999954,164.3200073,79.05999756,38.08000183,39.56000137,26.10000038,110.0400009,147.6100006,184.3200073,92.84999847,43.38000107,80.45999908,63.56999969,125.8399963,19.45000076,62.65000153,173.5899963,68.25,50.84999847,36.33000183,60.11000061,34.91999817,54.97999954,61.65000153,265.0400085,85.16000366,38.72999954,81.4050293,1949.900024,81.30000305,121.9800034,276.5899963,27.43000031,70.62999725,24.70000076,59.40999985,70.27999878,69.83999634,147.5399933,90.18000031,139.5500031,217.5,120.4899979,576.5100098,334.6300049,71.98000336,160.2100067,25.54000092,100.5699997,71.01999664,91.59999847,57.90999985,112.8000031,35.90000153,106.0299988,106.1600037,19.56999969,122.1200027,205.0800018,67.06999969,52.13999939,116.8799973,49.41571426,100.5,63.04000092,93.55999756,104.3600006,142.4900055,374.0700073,63.02000046,110.8099976,44.02999878,76.76999664,17.20999908,36.29000092,59.72000122,76.02999878,156.9900055,64.62999725,84.20999908,277.7999878,258.2600098,177.6000061,80.58000183,227.3600006,1139.099976,13.82999992,265.8099976,126.4499969,207.6799927,227.0399933,24.70000076,116.0500031,180.1699982,130.2100067,89.40000153,102.1900024,59.88235474,58.15999985,95.06999969,441.8999939,21.94000053,53.24000168,70.84999847,120.6500015,69.26999664,80.06999969,115.3499985,82.47000122,70.36000061,76.58000183,17.20999908,98.01000214,16.06999969,38.06000137,242.0500031,49.84999847,154.5500031,83.45999908,122.8000031,45.84000015,156.5800018,82.51000214,36.08000183,44,55.67499924,48.06999969,13.82999992,238.6900024,105.8000031,70.81999969,107.0100021,43.18999863,64.05000305,294.4400024,71.80999756,40.06000137,126.9499969,74.73999786,656.5100098,357.8399963,235.1900024,20.70000076,30.54000092,92.87000275,179.3600006,33.66999817,90.30999756,131.5200043,64.20999908,45.45000076,90.98000336,12.18000031,96.25,125.5,87.03287506,132.1300049,47.86999893,84.02999878,226,155.75,272.25,65.58999634,26.03000069,36.54000092,88.73000336,126.7600021,64.36000061,100.2200012,161.4700012,44.86000061,59.27000046,237.2400055,260.9500122,254.6199951,116.0899963,69.40000153,135.8000031,224.1300049,51.54000092,24.55999947,52.40000153,95.18000031,203.3999939,44.33000183,262.8099976,213.8300018,31.79333305,45.09000015,46.00999832
2018/1/18,59.06999969,151.2241364,67.80000305,340.1600037,61.83000183,46.25,168.8300018,131.5899963,46.88000107,76.62999725,78.27999878,34.84999847,167.8999939,103.4700012,74.88999939,83.55999756,87.43000031,12.06999969,207.8000031,16.125,52.36000061,107.7900009,169.1199951,62.61999893,65.80000305,115.3399963,29.05999947,178.6399994,79.34999847,61.13000107,77.79000092,245.9100037,97.5,153.4100037,45.38000107,29.55999947,118.4100037,106.0199966,119.0500031,36.99000168,38.59000015,70.02999878,59.75999832,90.18000031,49.74000168,195.7100067,205.0500031,61.91999817,44.90000153,116.4100037,140.4299927,134.6100006,35.29999924,167.3899994,31.37000084,44.5,34.08000183,108.2111969,430.7600098,183.7200012,73.44999695,76.37000275,58.04999924,143.1399994,58.65999985,39.24000168,174.5700073,85.81999969,69.19999695,232.1199951,146.9199982,102.9300003,23.29000092,32.27999878,155.1300049,99.86000061,219.6600037,113.2600021,83.25,110.4199982,77.33999634,150.7799988,83.05999756,31.47999954,63.95000076,77.90000153,44.47999954,58.81000137,73.85122681,76,61.52999878,60.06000137,272.1799927,76.40000153,120.9000015,227.5299988,46.27000046,40.47999954,15.22999954,104.3000031,179.7599945,174.75,179.2599945,75.38999939,37.15999985,49.02000046,51.54999924,37.15000153,101.3600006,34.15000153,53.84000015,333,90.51999664,38.79000092,166.8999939,68.81999969,79.54000092,314.2999878,27.82999992,38.625,83.99838257,210.5399933,170.3200073,39.29000092,33.75999832,51.22000122,87.26000214,26.53000069,62.22000122,81.55999756,120.6299973,198.3300018,153.7100067,77.38999939,67.94000244,64.11000061,138.3500061,31.29000092,91.66000366,50.22999954,112.5500031,18.69000053,55.38999939,187.5899963,161.5,21.60000038,191.5099945,41.29999924,96.83000183,20.81999969,56.13999939,90.09999847,65.05999756,243.1600037,60,43.99000168,27.39999962,57.40000153,55.34999847,52.52000046,97.36000061,104,19.39999962,55.84000015,26.60000038,31.61000061,93.80999756,279.4400024,56.09000015,32.16999817,135.0800018,212.4100037,784.789978,196.1999969,71.70999908,55.33000183,122.8399963,46.70000076,57.29000092,15.51000023,105.0500031,114.6500015,83.09999847,54.13999939,74.86000061,76.01999664,105.3799973,48.74000168,44.63000107,141.1300049,103.4100037,87.95999908,64.84999847,18.14999962,68.91000366,11.52999973,99.73999786,69.01999664,56.15000153,171.7799988,17.34000015,179.6399994,44.09999847,43.22000122,63.29999924,74.69000244,135.1600037,68.05000305,79.20999908,97.23999786,115.7900009,48.36000061,76.30000305,91.37999725,52.34000015,72.19000244,61.09000015,108.0500031,43.20000076,157.5800018,23.97999954,114.2399979,55.91999817,164.3999939,52.95000076,160.2799988,161.8000031,68.97000122,52.86000061,122.1900024,100.8600006,224.4400024,60.45000076,207.8699951,164.25,133.5899963,115.2799988,38.74000168,250.9700012,123.3099976,73.48000336,249.6499939,137.3399963,41.84999847,101.5699997,40.58000183,102.9100037,61.43000031,344.4400024,186.1499939,53.65000153,46.50999832,96.45999908,81.16999817,47.31000137,173.1100006,37.90999985,217.2899933,50.93999863,78.87999725,71.33999634,193.25,177.5700073,70.54000092,1293.319946,33.95000076,130.9799957,114.5400009,16.46999931,121.1800003,1135.969971,27.65999985,152.2100067,20.19000053,101.7200012,97.54000092,45.18999863,76.75,167.7899933,109.8199997,109.5699997,93.68000031,20.5,43.68000031,94.26999664,78.22000122,65.08000183,25.87078667,97.29000092,75.26999664,126.8899994,31.62999916,66.08999634,69.38999939,135.1900024,105.0699997,432.0700073,27.56999969,165.4799957,78.19000244,37.86000061,40.08000183,26.64500046,111.7699966,145.7400055,184.3800049,92.29000092,44.33000183,79.83000183,63.27000046,125.6800003,19.43000031,62.31000137,175.4799957,67.91000366,51.34999847,35.29999924,59.29000092,34.25,54.38000107,60.81000137,266.3299866,86.40000153,38.52999878,78.2046814,1926.709961,81.65000153,123.1100006,276.4200134,26.80999947,70.02999878,25.59000015,58.13999939,69.48999786,70.54000092,147.6900024,90.33000183,138,220.3300018,121.7200012,579.2199707,337.5299988,71.48999786,160.9400024,26.21999931,99.97000122,71.11000061,91.69000244,57.11000061,112.9000015,35.61999893,106.1100006,105.2900009,19.01000023,120.3499985,205.4499969,66.47000122,52.00999832,116.8899994,49.40228271,101.0299988,63.24000168,93.09999847,103.8099976,144.6999969,371.2799988,62.90000153,111.5,43.86000061,76.33000183,17.01000023,36.56000137,59.45000076,76.06999969,157.1900024,65.01000214,84.05000305,278.1300049,255.9400024,179.8000031,80.90000153,224.6000061,1135.969971,13.69999981,269.7999878,124.6399994,205.3200073,226.6399994,25.59000015,117.3199997,181.2400055,129.3200073,90.11000061,102.2900009,58.52548981,58.34000015,94.11000061,437.4500122,22,52.75,70.69999695,121.4499969,68.02999878,79.26999664,115.5299988,82.94000244,69.80000305,76.30000305,17.01000023,98.19999695,15.97000027,37.29999924,241.3099976,49.47000122,153.5599976,82.69999695,122.0500031,45.75999832,156.4700012,82.41000366,35.88000107,43.84999847,55.5,48.59000015,13.69999981,243.1499939,106.1800003,69.79000092,106.9599991,42.70000076,64.02999878,294.1000061,72.62999725,39.68000031,117.9100037,74.45999908,653.75,365.25,235.5200043,20.01000023,30.35000038,91.54000092,179,33.15000153,91.91999817,132.9100037,63.63999939,45.15999985,91.47000122,12.47000027,95.40000153,125.3799973,86.92041779,134,47.65000153,83.94999695,223.2400055,158.3399963,270.7000122,65.91000366,25.38999939,36.06999969,88.79000092,126.1100006,63.49000168,99.91999817,161.6499939,44.93999863,58.86000061,236.8800049,260.75,253.9900055,117.2699966,70.16000366,136.8200073,225.8899994,51.08000183,24.04000092,50.90999985,95.12999725,203.25,44.59999847,265.1900024,215.9299927,31.73333359,45.70999908,45.77000046
2018/1/19,59.31000137,152.0963135,67.76000214,337.730011,62.27999878,47.38999939,170.4100037,131.3000031,47.15999985,77.5,78.26999664,34.65999985,170.3200073,103.1500015,74.98999786,83.94999695,87.15000153,12,209.1000061,15.63461494,53.00999832,109.3700027,162.3699951,63.5,66.62000275,115.4899979,29.71999931,181.1399994,79.86000061,61.27999878,76.98999786,248.1799927,97.80000305,151.3999939,45.13000107,29.39999962,118.4400024,105.9899979,120.1699982,36.93999863,37.97000122,71.12000275,59.75,91.06999969,49.79999924,196.6799927,203.5099945,62.11999893,44.43999863,116.8300018,141.25,135.8999939,35.79999924,167.5299988,31.79999924,44.38999939,34.99000168,108.1827316,430.7999878,189.0800018,73.13999939,76.41999817,57.49000168,143.8600006,59.11000061,39.47000122,176.1199951,85.48999786,70.01000214,234.5099945,147.3600006,104.1399994,23.70000076,32.29999924,155.1900024,98.02999878,220.1499939,113.0100021,83.76999664,110.5899963,76.81999969,150.1600037,83.16999817,31.71999931,64.22000122,78.09999847,44.81999969,58.90000153,75.13182831,76.47000122,61.54999924,60.43000031,274.3200073,77.51000214,121.4400024,230.0500031,45.90000153,40.95999908,16.13999939,104.5899963,182.7899933,175.9100037,178.4600067,75.55000305,37.77000046,50.68999863,51.90999985,37.20999908,104.9499969,34.59999847,52.61000061,332,92.55999756,38.72000122,167.8000031,68.72000122,80.86000061,316.3699951,27.79999924,39.44499969,84.33763885,210.9400024,172.4199982,38.90000153,34.81000137,52,86.68000031,26.28000069,63.20999908,82.08000183,121.3399963,201.3300018,155.25,78.30000305,68.58000183,67.20999908,139.75,31.21999931,92.15000153,50.58000183,115.2900009,18.57999992,55.15999985,189.2799988,161.8800049,21.35000038,192.2899933,41.29000092,98.12999725,21.15999985,55.99000168,90,65.05000305,243.3500061,57.75,42.75,27.64999962,57.40000153,56.61000061,52.50999832,99.04000092,103.6999969,19.95999908,57.45999908,27.01000023,31.59000015,94.98999786,279.2999878,55.95999908,32.5,135.1799927,213.5099945,793.7999878,195.7299957,71.91000366,55.47999954,124.5299988,46.04999924,57.65999985,15.81000042,107.6100006,115.0199966,83.80999756,54.79999924,75.16000366,74.95999908,106.4899979,49.09999847,44.88999939,144.0700073,104.3799973,88.05999756,67.54000092,18.67000008,69.48999786,11.75,100.5599976,68.55999756,56.45999908,170.3600006,17.30999947,181.3300018,44.04999924,43.40999985,63.09000015,76.86000061,135.0299988,68.04000092,79.08000183,96.13999939,117.3499985,48.25,75.70999908,92.72000122,53,73.06999969,61.25999832,107.7699966,42.84999847,159.1799927,23.94000053,114.3700027,57.02000046,167.7400055,53.40000153,161.2799988,164.0599976,69.05500031,53.72999954,123.4800034,100.0599976,230.1100006,60.47000122,210.7200012,164.2400055,133.0800018,116.1800003,38.43000031,256.1199951,124.1299973,74.05000305,250.0599976,137.8500061,42.5,103.0599976,40.59999847,99.19000244,61.77999878,342.4100037,188.7799988,54.27999878,46.72999954,97.26000214,80.98000336,47.75999832,174.3899994,37.97999954,218.2799988,51.47999954,80.19000244,71.79000092,193.5599976,178.8099976,71.81999969,1294.579956,33.36000061,134.4499969,114.4800034,16.40999985,121.9499969,1143.5,27.85000038,154.2799988,20.23999977,102.6500015,98.47000122,45.88000107,77.29000092,168.6999969,112.7799988,110.3199997,95.16000366,20.71999931,44.13999939,94.08000183,78.31999969,65.62999725,26.22659111,97.44999695,75.59999847,126.2699966,31.69000053,66.40000153,69.94999695,137.6199951,108.9199982,433.230011,27.51000023,166.8300018,78.61000061,38.13000107,40.38999939,26.875,111.9300003,145.8899994,183.1699982,93.12999725,43.70999908,80.06999969,63.11000061,127.5299988,20.07999992,61.95000076,179.6399994,68.19999695,52.40000153,35.49000168,59.29000092,34.75999832,54.47000122,60.79000092,273.019989,85.59999847,38.99000168,77.93582153,1910.209961,83.76000214,122.6999969,275.6900024,26.89999962,71.12999725,25.70999908,58.31999969,68.91000366,70.58000183,148.1999969,90.93000031,138.7599945,220.4600067,123.9100037,590.2600098,343.8699951,71.88999939,161.75,26.53000069,100.7300034,71.91000366,91.87999725,56.93999863,114.7300034,35.45000076,107.3499985,105.6299973,19.01000023,121.0500031,207.5299988,66.86000061,52.61999893,119.9199982,49.68435287,101.9800034,63.86999893,93.51999664,104.6399994,147.0700073,371.5299988,63.75,110,43.15000153,76.62000275,17.21999931,36.70999908,60.00999832,76.98000336,157.9700012,65.86000061,86.23000336,279.1400146,261.8200073,181.2899933,82.38999939,223.6300049,1143.5,14.21000004,266.3900146,124.0400009,212,226.9799957,25.70999908,118.0899963,183.6699982,128.9700012,93.01000214,99.19999695,59.57646942,58.06000137,93.91000366,437.8900146,23.20000076,53.13999939,68.40000153,123.6100006,69.16000366,79.66000366,117.0199966,83.83999634,70.56999969,76.5,17.21999931,98.90000153,16.07999992,38.47000122,243.5500031,49.90999985,153.8899994,83.63999939,122.6100006,46.81999969,156.1900024,83.01000214,35.97000122,43.45999908,55.33499908,50.20999908,14.21000004,244.1300049,108.0100021,68.87999725,107.3000031,42.95999908,64.29000092,299.1700134,72.63999939,39.40999985,116.0100021,74.55999756,666.6900024,366.0499878,240.6499939,20.53000069,30.21999931,92.51999664,180.6300049,33.5,93.16000366,133.8800049,63.77000046,45.25999832,92.61000061,12.59000015,96.19000244,125.9499969,87.35294342,137.3500061,48.86999893,85.48999786,224.6000061,161.5399933,269.4599915,67.04000092,25.63999939,36.34999847,88.68000031,127.5599976,64.19000244,103,165.7899933,45.59999847,59.43000031,242.1199951,263.0499878,256.3200073,118.0500031,71.58999634,138.25,228.2899933,50.95000076,23.65999985,50.93999863,95.93000031,206.6499939,45.66999817,270.8399963,218.7899933,31.92000008,46.00999832,46.33000183
2018/1/22,59.56999969,151.9525604,68.12999725,338,63.27999878,47.65000153,170.8899994,132.5599976,47.38000107,77.37999725,78.52999878,34.70999908,170.3800049,103.3600006,74.88999939,84.36000061,88.25,12.02000046,208.1999969,15.54807663,56.40000153,109.9599991,162.6000061,63.45999908,67.16999817,116.9100037,29.62999916,182.1499939,80.94999695,61.25,76.83000183,247.3000031,97.33000183,151.4700012,45.22999954,32.45000076,116.7799988,105.0500031,121.5100021,36.93000031,38.04999924,71.27999878,60.66999817,91.88999939,50.04000092,196.3699951,203.9299927,62.13999939,44.04000092,119.4400024,141.9700012,135.2100067,35.97999954,166.6499939,32.63999939,43.93999863,35.61999893,108.4246902,427.1799927,189.5800018,73.26000214,79.79000092,57.72999954,144.4799957,59.77000046,39.65999985,176.2100067,85.44000244,70.19999695,236.7100067,148.1399994,104.1299973,23.85000038,32.84999847,153.0599976,98.31999969,220.75,114.3300018,84.05999756,111.0999985,76.94999695,150.0200043,83.34999847,31.94000053,64.73000336,78.58000183,45.75,59.09000015,75.72504425,77.40000153,61,61.29000092,273.8900146,77.63999939,122.7699966,229.8600006,45.86999893,42.75,16.09000015,105.4499969,182.6900024,175.2299957,177,77.62999725,37.77000046,52.04000092,53.45999908,37.86999893,107.1100006,35.15000153,53.47000122,329,90.86000061,37.75999832,168.6000061,68.98999786,81.19999695,315.1400146,27.79000092,39.72999954,84.68497467,210.2299957,173.3899994,39.20000076,35.47999954,52.81999969,86.05000305,26.47999954,63.59000015,82.70999908,120.7300034,204.4600067,155.7200012,78.58999634,69.87999725,66.38999939,140.3399963,31.54000092,92.77999878,50.70999908,117.4300003,19.28000069,55.29999924,192.3300018,160.6199951,21.95999908,194.3800049,41.65999985,97.76999664,21.38999939,56.09999847,91.61000061,64.88999939,243.5599976,58.25,42.88000107,27.70999908,57.45999908,57.72000122,52.79999924,98.05999756,104.4300003,19.98999977,57.36000061,27.25,31.48999977,95.20999908,281.8699951,56.04999924,32.77000046,135.9799957,215.3200073,788.7000122,197.8399963,73.51000214,55.43999863,125,47.65999985,58.22000122,16.03000069,108.9899979,114.5899963,84.91000366,54.88000107,75.93000031,76.36000061,107.4300003,48.97000122,45.34999847,143.8099976,105.4899979,88.66000366,68.16999817,19.15999985,69.69999695,11.38000011,99.97000122,68.86000061,57.25999832,172.9600067,17.67000008,188.1499939,44.15999985,43.84500122,63.52000046,78.05999756,133,68.66999817,78.95999908,96.65000153,117.4000015,48.09000015,75.44000244,93.83999634,53.81000137,73.48000336,61.40999985,109.8799973,44.81000137,160.4700012,23.95000076,116.8199997,57.45000076,168.6699982,53.84999847,162.5200043,165.1399994,70.09500122,54.15999985,126.1999969,102.6600037,233.6900024,61.18000031,214.7700043,166.1000061,132.8600006,117.9899979,39.58000183,261.519989,124.3300018,73.97000122,250.5,139.3500061,42.88999939,103.5699997,41.38999939,99.12999725,63.11000061,347.6400146,188.7599945,54.97999954,47.63999939,98.94999695,81.41000366,47.50999832,176.2599945,38.74000168,219.3200073,52.36999893,80.88999939,73.12000275,193.7799988,177.9400024,71.73000336,1327.310059,33.93999863,134.8699951,114.4599991,16.57999992,123.4700012,1164.160034,28.36000061,155.4499969,20.54999924,102.9100037,99.19000244,45.72999954,77.95999908,170.1000061,114.8899994,110.0199966,95.43000031,20.80999947,44.27999878,94.02999878,78.87000275,65.65000153,26.13295937,98.69000244,75.83000183,128.1900024,32.93999863,66.44000244,70.23000336,139.2400055,108.8099976,433.9400024,28.11000061,168.2799988,78.94999695,37.86999893,40.84000015,27.16500092,112.8899994,143.1900024,186.3000031,91.98000336,43.77000046,80.62999725,63.00999832,127.3799973,20.02000046,60.79999924,195.2299957,68.27999878,51.88000107,35.81000137,59.33000183,34.88000107,54.49000168,60.75999832,272.2999878,86.23999786,39.09000015,77.92714691,1915.77002,84.48000336,124.3300018,276.0700073,26.92000008,71.12000275,26.32999992,59.88000107,69.12999725,71.48999786,149.7899933,89.83999634,141.0599976,227.5800018,124.5100021,593.2600098,330,73.16000366,161.4299927,26.65999985,101.2600021,72.65000153,93.44000244,56.47999954,115.0199966,37.20000076,108.3000031,106.6600037,19.62999916,123.6699982,209.1900024,67.76999664,53.15999985,118.9400024,49.65748978,102.2699966,64.04000092,93.55000305,106.4899979,148.3500061,375.8599854,66,110.9599991,43.29000092,77.48000336,17.18000031,37.09999847,60.13000107,76.5,161.9100037,65.69999695,85.80000305,279.5599976,261.8500061,185.3699951,81.94000244,226.6000061,1164.160034,14.55000019,262.1099854,126.8000031,213.9700012,226.7100067,26.32999992,117.8099976,187.1199951,128.6999969,92.86000061,98.72000122,59.92941284,58.09999847,95.95999908,436.0499878,23,53.86000061,66.33999634,125.3899994,68.77999878,80.16999817,118.0299988,83.98000336,71.30000305,76.87000275,17.18000031,99.51999664,16.04999924,39.52000046,245.1900024,50.11000061,154.6000061,85.15000153,124.3700027,47.81000137,160.4100037,82.95999908,36.36000061,43.24000168,55.79499817,50.36999893,14.55000019,235.0099945,109.0999985,68.55000305,109.3399963,42.84999847,64.75,296.8500061,72.83999634,39.54999924,113.5299988,74.19999695,670.8800049,370.25,241.3099976,20.88999939,30.43000031,93.25,180.9499969,34.59000015,94.08000183,134.5599976,64.30999756,46.25999832,92.95999908,12.64999962,96.55999756,127.3199997,87.98442841,138.4499969,48.36999893,85.76999664,230.5,163.1300049,267.1000061,67,25.97999954,37.11999893,87.51000214,127.25,64.41000366,102.8399963,167.6499939,45.68999863,59.36999893,238.8800049,260.75,259.3500061,118.4000015,76.77999878,139.2700043,228.1799927,50.81999969,23.31999969,51.74000168,96.86000061,206.7700043,45.41999817,275.6799927,218.3500061,31.92000008,45.84999847,46.47999954
2018/1/23,59.22999954,152.9589233,68.76999664,335.5899963,63.43000031,47.56999969,169.4299927,131.0200043,47.45000076,76.90000153,79.66000366,34.56000137,168.6600037,104.6699982,75.70999908,85.12000275,88.30000305,11.96000004,207.4799957,16.24038506,56.83000183,110.8099976,166.25,63.31999969,66.93000031,117.8399963,29.30999947,182.9299927,80.44000244,61.70000076,77.66000366,246.3099976,96.76000214,151.6600037,45.72000122,32,117.25,106.2200012,121.3000031,36.81999969,38.52999878,71.44999695,60.47000122,89.05000305,50.72000122,196.2299957,204.6900024,62.04000092,44.47000122,119.8899994,141.3600006,136.0299988,36.61000061,171.9799957,32.58000183,43.84000015,35.20000076,108.3677597,429.2099915,188.4299927,73.12000275,79.20999908,57.09999847,143.5200043,59.79000092,40.31999969,176.8099976,84.41999817,69.59999847,234.7100067,141.8300018,104.7300034,23.80999947,33.15000153,153.0099945,97.98000336,219.7899933,114.2099991,83.26000214,110.4100037,77.70999908,152.7200012,82.90000153,31.92000008,64.48999786,78.12000275,46.06000137,59.09999847,76.14877319,77.01999664,62.34000015,61.45999908,272.019989,77.36000061,122.0999985,229.4499969,45.45999908,42.61000061,17.76000023,105.9000015,183.1999969,173.8899994,177.0399933,77.41999817,37.72000122,53.20000076,53.22999954,37.18999863,107.1100006,34.93000031,53.61999893,328.7000122,94.55999756,38.40000153,169.6000061,68.98000336,81.43000031,313.480011,28.07999992,39.65999985,85.26655579,209.3300018,173.0599976,40.47000122,35.45999908,52,85.23000336,27.53000069,63.34000015,82.95999908,119.7399979,204.8999939,155.7700043,78.55000305,70.31999969,67.13999939,137.7599945,31.64999962,92.76999664,51.11999893,118.7300034,19.21999931,56.06999969,191.9900055,159.2299957,21.72999954,193.4199982,42.09999847,97.95999908,21.61000061,56.20000076,91.90000153,65.26000214,245.2100067,57.52000046,43.95000076,27.81999969,57.79000092,57.72000122,52.90000153,97.48999786,101.25,19.54999924,56.90999985,27.36000061,31.77000046,95.25,282.8599854,56.66999817,32.91999817,137.4199982,214.5500031,786.3699951,200.0899963,73.20999908,55.31999969,124.9899979,47.77000046,57.04999924,16.04000092,112.1800003,116.0100021,85.83999634,54.86999893,77.01000214,75.5,106.8899994,49,45.50999832,145.8000031,105.7099991,88.59999847,68.83000183,19.36000061,69.98999786,11.42000008,99.94999695,68.51000214,57.18000031,170.6000061,17.32999992,188.0599976,44.45999908,44.04000092,63.84000015,77.51999664,134.8800049,68.33999634,79.88999939,96.47000122,118.0800018,47.34999847,75.54000092,94.01000214,54.06999969,73.44000244,61.68999863,108.8600006,44.52000046,160.8399963,24.17000008,117.8399963,57.06000137,168.4600067,53.61000061,161.9400024,164.8999939,70.19499969,54.16999817,124.5100021,102.8099976,238.9100037,61.79000092,210.9900055,166.3300018,132.0700073,117.6699982,39.77000046,260.0899963,124.1999969,73.55999756,250.5,146.2599945,42.43999863,103.1200027,42.34000015,98.88999939,64.97000122,346.75,188.8300018,54.95999908,46.84999847,98.69000244,80.94999695,47.58000183,175.7799988,38.72999954,220.7799988,52.38000107,81.12999725,73.48999786,198.0899963,178.3099976,70.93000031,1362.540039,33.38999939,136.7200012,115.7699966,16.60000038,124.1500015,1176.170044,28.12999916,154.25,20.72999954,104.5500031,99.12999725,45.95000076,78.26000214,172.6900024,115.8499985,110.8099976,94.90000153,21.29999924,44.5,94.76999664,78.72000122,66,25.88014984,98.51999664,75.79000092,128.9299927,33.13000107,66.88999939,69.87999725,141.1999969,109.5299988,439.5499878,28.36000061,167.1900024,79.04000092,37.61000061,41.29999924,27.20499992,113.2399979,142.4100037,186.0099945,91.81999969,44.06999969,80.20999908,63.58000183,128.0399933,20.05999947,61.16999817,194.9499969,68.27999878,51.31999969,36.34999847,60.31999969,34.93999863,55.95000076,61.11999893,271.2099915,87.33999634,38.86999893,77.08586121,1962.939941,84.58000183,124.6500015,276.6300049,27.13999939,71.56999969,25.70000076,60.47999954,69.19000244,70.54000092,153.2899933,91.76999664,142.5899963,250.2899933,124.4000015,589.6799927,328.7099915,73.12000275,160.8800049,27.29999924,100.6999969,72.61000061,93.98999786,56.11000061,114.6999969,36.29999924,110.3300018,106.9000015,19.45000076,125.5899963,215.0700073,68.44999695,54.06000137,118.4300003,49.14036179,103.1699982,64.51999664,92.83000183,105.3799973,151.0800018,381.7099915,68.86000061,111.6600037,43.38000107,77.58999634,17.06999969,37.08000183,59.93000031,77,166.5800018,66.95999908,85.34999847,278.8099976,260.7799988,189.3500061,81.04000092,231.8300018,1176.170044,14.98999977,262.8999939,125.0500031,212.9199982,231.4199982,25.70000076,117.25,185.8699951,127.2200012,91.73000336,99.37000275,59.84313583,58.29000092,97.15000153,442,22.97999954,54.52999878,67.31999969,125.5899963,68.41000366,80.26999664,119.0999985,84.20999908,71.55000305,77.97000122,17.06999969,99.25,16.67000008,39.77999878,242.9400024,49.86000061,157.8699951,86.72000122,124.7399979,47.86999893,160.5299988,84.19999695,37.02999878,42.95000076,55.48500061,51.52000046,14.98999977,228.7899933,109.8899994,69.47000122,111.1100006,43.13000107,64.55999756,300.3699951,72.5,40.15999985,113,75.05999756,667.1500244,369.25,238.6999969,20.77000046,30.29999924,95,182.2299957,34.45000076,94.62999725,134.8099976,64.58999634,46.33000183,93.37999725,12.93999958,96.56999969,127.6699982,88.19203949,139.2100067,48.50999832,86.52999878,231.6399994,161.8500061,272.1600037,66.80000305,26.20000076,37.02000046,100.3499985,126.4800034,64.94999695,103.2099991,168.25,45.75,58.33000183,235.0399933,263.3399963,261.3399963,116.8099976,77.79000092,140.1000061,230.2700043,51.45999908,22.75,51.72000122,96.65000153,208.8500061,44.99000168,273.1400146,218.7700043,31.92000008,45.75,46.54999924
2018/1/24,61.72000122,153.3231354,68.48000336,334.6900024,63.75999832,47.09999847,168.3399963,131.3899994,47.83000183,76.80000305,79.41999817,34.11999893,169.6000061,104.4300003,75.55999756,84.5,88.52999878,12.05000019,219.2700043,15.80769253,55.34000015,110.3099976,165.3699951,63.65999985,67.30000305,119.7099991,29.47999954,183.1100006,80.91999817,61.18000031,76.69999695,247.6900024,95.83999634,149.9400024,45.54999924,31.10000038,118.9400024,105.6800003,121.1399994,36.93000031,38.20999908,71.55999756,60.49000168,88.30999756,50.41999817,198.0899963,200.4700012,61.70000076,44.08000183,109.6999969,141.1900024,135.6799927,37.59000015,178.9700012,32.36000061,43.68000031,35.36999893,108.1827316,429.3800049,188.3500061,72.62999725,78.18000031,56.86999893,142.25,59.72000122,41.56999969,176.1199951,84.30000305,70.13999939,238.6399994,142.0700073,106.6299973,23.65999985,33.09999847,152.8600006,99.30000305,221,115.6699982,83.88999939,110.5,77.23999786,150.8500061,83.33999634,32.09000015,65.48000336,76.88999939,45.50999832,59.70999908,76.24293518,77.33000183,64.31999969,61.27999878,270.4100037,78.29000092,120.8600006,271.9700012,45.90999985,42.84000015,17.27000046,105.7900009,182.7700043,170.5899963,174.2200012,77.55999756,37.59999847,53.18999863,54.22000122,37.02000046,106.7200012,34.81000137,53.88000107,330.4899902,95.76999664,38.84000015,170.8099976,69.01000214,81.41999817,313.4599915,28.13999939,39.625,84.63651276,208.8300018,173.7599945,40.59999847,34.88000107,50.61999893,85.76000214,27.15999985,63.72999954,83.41999817,120.0599976,206.2200012,157.7400055,79.44999695,71.19999695,68,137.3099976,31.22999954,93.06999969,51.45000076,116.9000015,19.28000069,55.74000168,190.6300049,160.8699951,21.81999969,194.2400055,42.16999817,98.63999939,21.72999954,55.95999908,91.81999969,62.20999908,244.8500061,59.22999954,43.08000183,27.90999985,56.88000107,57.77000046,53.04000092,97.55000305,99.87000275,19.60000038,57.24000168,27.25,32,95.52999878,286.3200073,58.15000153,33.33000183,138.8300018,215.3200073,793.3599854,197.7799988,74.69000244,55.38999939,125.7300034,48.11999893,55.33000183,16.11000061,112.7099991,114.9300003,85.23999786,55,77.23999786,76.58000183,106.1699982,48.90000153,45.52000046,144.3899994,105.2600021,88.5,67.69999695,19.43000031,68.01999664,11.15999985,101.3799973,71.16999817,57.75,174.5800018,17.38999939,186.7200012,44.25999832,44.21500015,62.93000031,76.79000092,135.4900055,67.98000336,80.22000122,95.33999634,117.7099991,47.33000183,73.48000336,93.77999878,55.95000076,73.58000183,60.83000183,109.1200027,44.52000046,162.1900024,24.18000031,118.4700012,57.43000031,167.5500031,54.09999847,164.4900055,164.9799957,70.06999969,53.74000168,125.0199966,104.6200027,235.8000031,61.43999863,214.3000031,166.1000061,131.6900024,114.6600037,39.81999969,265.6799927,124.8300018,74,252.9900055,147.6199951,42.99000168,104.6200027,42.09000015,100.0899963,64.48000336,346.5,189.4600067,55.18999863,46.11999893,97.66000366,81.30000305,47.54000092,174.8399963,38.29000092,222.0299988,51.84999847,79.77999878,72.73999786,194.9199982,180.3099976,70.86000061,1357.51001,33.13000107,136.25,115.7699966,16.32999992,123.2399979,1171.290039,27.96999931,154.9900055,20.52000046,103.1100006,100.5599976,45.20999908,78.44999695,171.8000031,117.7399979,113.0500031,96.18000031,21.29000092,44.59000015,95.58000183,78.73999786,66.01999664,25.78651619,95.36000061,75.41999817,130.4299927,33.09000015,67.05000305,70.23999786,141.7599945,110.5999985,437.480011,28.11000061,167.0099945,78.63999939,37.61000061,41.63999939,28.43000031,112.8499985,143.1000061,188.3300018,91.19999695,45.34000015,81.16999817,63.24000168,126.9400024,19.94000053,61.83000183,200.5800018,68.12999725,51.84000015,35.77000046,60.54000092,34.38999939,55.88999939,61.13000107,275.9299927,86.97000122,38.97000122,77.82306671,1955.23999,84.58999634,124.5500031,276.5100098,27.25,71.37999725,26.01000023,60.70999908,67.69999695,70.94999695,154.9799957,91.98000336,142.1300049,261.2999878,124.7900009,587.6699829,329.5299988,71.58999634,160.6000061,27.20000076,102.3899994,72.56999969,93.61000061,56.74000168,114.3399963,36.31000137,109.5899963,104.6299973,19.13999939,125.0100021,209.7299957,68.27999878,52.97000122,118.9400024,49.32840729,102.6900024,64.20999908,93.54000092,105.5100021,151.3399963,383.3200073,67.30999756,112.6900024,44.15999985,78.33000183,17.09000015,37.52999878,56.79999924,76.90000153,167.4499969,67.26999664,85.58000183,274.5599976,259.4899902,186.5500031,80.68000031,231.5500031,1171.290039,14.93000031,256.8599854,124.2300034,211.4499969,232.2599945,26.01000023,117.9899979,185.5200043,132.5099945,91.48999786,97.12999725,60.71372604,54.79000092,96.98000336,441.2999878,23.23999977,54.00999832,66.90000153,125.6500015,68.75,79.86000061,120.9899979,83.70999908,70.08000183,69.05000305,17.09000015,99,16.68000031,39.74000168,242.4900055,49.11000061,159.0200043,85.54000092,123.2200012,47.38000107,160.8999939,83.75,36.81999969,42.90000153,55.50999832,52.25,14.93000031,224.3099976,112.1699982,64.69000244,110.8499985,42.86999893,65.12000275,303.8999939,73.12999725,39.84999847,112.4000015,75.36000061,672.6900024,376.1799927,239.3300018,20.37999916,30.47999954,94.61000061,184.0800018,34.65000153,95.33999634,135.5700073,64.30000305,47.72999954,92.83999634,12.71000004,96.90000153,126.6200027,87.5345993,140.1900024,48.68000031,85.79000092,231.9600067,161.5399933,272.2799988,66.80000305,26.02000046,37.63000107,100.2200012,126.1999969,64.62000275,103.5,168.9499969,45.38000107,59.77000046,238.1399994,255.7299957,260.7200012,116.2399979,76.52999878,138.0700073,232.9499969,51.18999863,22.37000084,49.25999832,96.18000031,207.8300018,44.72000122,273.1400146,215.7700043,33.65999985,45.25,46.02999878
2018/1/25,63.22000122,155.1154327,69.69999695,343.1099854,63.52000046,47.45999908,169.3699951,130.6499939,47.84000015,77.30999756,80.37999725,33.81000137,169.1300049,105.9599991,76.69000244,85.22000122,88.37000275,11.56999969,226.5299988,15.55769253,55.20000076,111.2300034,165.4700012,63.40000153,67.91000366,123.4400024,30.26000023,181.8899994,81.58000183,61.29999924,78.08000183,252.3600006,97.68000031,148.2299957,46,32.09000015,120.2099991,106.4000015,120.9000015,37.22999954,38.68000031,69.91000366,59.47999954,88.33999634,51.11999893,202.8399963,199.7100067,62.40999985,44.61999893,110.1500015,133.6000061,137.75,37.72999954,183.0899963,32.38000107,43.49000168,35.47000122,109.0936279,424.6600037,189.3999939,72.68000031,77.33000183,56.13999939,146.1300049,60.13999939,40.77000046,175.6600037,85.01000214,71.05000305,242.3500061,144.3999939,106.3099976,23.31999969,32.40000153,154.8500061,99.69000244,221.8800049,115.6999969,83.79000092,110.5500031,78.90000153,153.0899963,83.40000153,32.09000015,65.65000153,76.30000305,45.29999924,60.52999878,76.21469116,78.26999664,64.80000305,61.22000122,268.0400085,77.22000122,120.6299973,286.4400024,45.43000031,42.88999939,16.63999939,106.5999985,181.0299988,169.1600037,171.1100006,76.73999786,38.04000092,52.34999847,54.29000092,37.45000076,106.3799973,34.25999832,53.59000015,334.7200012,95.55000305,39.20999908,174,68.23999786,82.75,325,28.37999916,39.63000107,84.35379791,207.5099945,174.7599945,40.79000092,34.58000183,49.5,86.81999969,26.81999969,63.99000168,83.56999969,120.9599991,205.3699951,157.8000031,79.44000244,70.59999847,67.70999908,138.3200073,24.80999947,92.70999908,51.59999847,116.8700027,18.68000031,56.74000168,190.0800018,163.3500061,21.36000061,197.9499969,41.90000153,100.2799988,21.67000008,55.02999878,92.33000183,60.18999863,245.1799927,59.27000046,43.00999832,28.26000023,55.75999832,56.84999847,53.15000153,97.86000061,100.7300034,19.81999969,56.81000137,26.63999939,32.27000046,94.69999695,285.9100037,58.49000168,32.84000015,139.5500031,217.8800049,786.2999878,197.5099945,73.98999786,54.18000031,126.75,47.45000076,55.75999832,16.04999924,110.3300018,113.0899963,85.66000366,54.68999863,77.22000122,76.68000031,105.0100021,49.08000183,45.15999985,145.5,104.2600021,88.55999756,66.79000092,19.13999939,68.62999725,11.48999977,102.6999969,70.76000214,57.97999954,175.1999969,17.78000069,187.1199951,45,44.70999908,62.49000168,76.26999664,138.5399933,67.41999817,81.05000305,91.98000336,117.3499985,47.79000092,69.73999786,94,54.70000076,73.86000061,60.54999924,109.1299973,43.90999985,162.7899933,24.42000008,117.4499969,57.34000015,167.8200073,54,165.5500031,166.5800018,70.40000153,53.02000046,124.7399979,104.3700027,236.3500061,61.20999908,217.2100067,164.1999969,131.2899933,114.5,40.02000046,269.0299988,124.4000015,74.26000214,251.3500061,148.4700012,42.13999939,105.1500015,42.27000046,105.0899963,64.22000122,353.7399902,187.6600037,54.20999908,45.99000168,97.18000031,81.19000244,47.43000031,174.7100067,37.59999847,221.3099976,50.34999847,79.80000305,72.23000336,192.5700073,173.1300049,68.47000122,1377.949951,33.61000061,137.1699982,115.9899979,16.19000053,122.6800003,1182.140015,27.67000008,154.1699982,20.79999924,104.3899994,101.5,45.81000137,77.94999695,170.1799927,117.3700027,127.0100021,96.52999878,21.17000008,44.47000122,95.02999878,80.30000305,66.87000275,25.68352127,92.48000336,74.94000244,131.1100006,32.61999893,66.70999908,69.86000061,142.9600067,107.4899979,449.8099976,27.62000084,168.5899963,78.95999908,37.59000015,40.40999985,28.54999924,111.9599991,144.4700012,188.5,91.19999695,45.02999878,81.18000031,64.13999939,129.5500031,19.90999985,62.81000137,200.6000061,68.5,52.22999954,35.81999969,60.84000015,34.59000015,56.40999985,64.56999969,272.8800049,87.98999786,38.88999939,79.76583099,1949.670044,84.38999939,125.2200012,279.0799866,27.64999962,73.69000244,25.72999954,60.58000183,68.05000305,71.54000092,154.8099976,91.56999969,134.9400024,269.7000122,126.2399979,575.5,333.9700012,71.08000183,160.7899933,26.69000053,102.6399994,73.23999786,94.58999634,56.25999832,115.0699997,36.49000168,108.6100006,104.1699982,18.81999969,124.9499969,199.25,67.80000305,53.16999817,120.7399979,49.26124954,103.75,63.75,92.48999786,108.3000031,152.7100067,391.8399963,65.05000305,111.4199982,43.15999985,79.25,17.04000092,37.20000076,54.81000137,76.98000336,166.2400055,67.04000092,85.34999847,276.769989,252.8500061,187.4799957,78.15000153,231.2599945,1182.140015,14.56999969,247.2899933,120.25,211,238.1399994,25.72999954,119.1299973,181.9100037,131.9299927,92.83000183,95.05000305,61.28627396,53.04999924,96.48999786,439.1700134,22.80999947,54.43999863,66.05999756,123.9899979,69.08999634,79.66999817,120.9199982,84.33999634,70.81999969,66.08000183,17.04000092,98.58999634,16.47999954,39.58000183,243.3899994,49.34000015,160.1699982,85,123.1600037,46.66999817,159.7899933,84.52999878,36.72999954,42.90000153,55.33000183,52.43999863,14.56999969,227.2899933,112.1999969,62.06999969,111.4100037,42.54999924,65.65000153,306.8500061,72.48000336,40.38999939,116.9000015,74.80999756,678.0499878,375.1400146,243.7899933,20.25,30.46999931,94.5,185.7299957,33.99000168,94.26000214,137.1600037,64.12000275,47.02999878,91.91000366,12.40999985,95.84999847,126.9700012,88.11418915,140.1199951,48.45000076,86.62999725,230.9299927,159.9299927,273.5599976,67.40000153,26.01000023,36.81000137,101.6200027,125.6299973,64.88999939,104.5800018,170.2899933,44.86000061,59.61000061,241.25,257.6400146,261.1300049,117.1999969,78.93000031,137.8600006,236.3200073,51.61999893,22.15999985,48.5,96.37999725,212.1199951,44.97999954,276.7600098,216.6000061,33.65999985,45.40999985,45.74000168
2018/1/26,63.41999817,158.134552,68.75,343.2200012,64.25,47.34000015,167.0599976,131.1900024,48.52999878,73.55999756,80.40000153,34.38000107,171.4900055,105.5,75.5,86.48999786,89,11.64999962,226.2400055,15.50961494,55.61000061,111.0699997,167.3399963,64.75,68.33000183,122.2300034,30.87999916,183.8000031,82.01000214,62.04000092,78.29000092,258.6300049,99,150.9700012,45.70000076,32.09000015,121.4700012,105.5299988,121.7600021,39.00999832,38.86000061,71.01999664,60.38999939,87.73000336,51.20000076,208.9100037,203.0099945,62.45999908,44.31000137,113.6900024,134.2299957,137.9799957,37.84999847,185.9700012,32.83000183,43.54000092,35.75999832,109.6202393,423.6799927,192.5,74.05000305,77.61000061,57.90999985,142.6399994,60.20000076,41.04999924,178.3600006,87.08000183,72.26000214,246.2799988,145.3300018,107.5800018,23.90999985,32.52999878,153.4900055,99.62999725,226.2200012,116.3199997,84.38999939,112.1900024,78.83000183,157.6900024,84.80999756,32.20000076,65.93000031,76.94999695,50.08000183,60.86000061,76.8079071,79.15000153,64.68000031,61.52999878,268.8500061,78.70999908,122.3300018,285.2600098,45.33000183,43.59000015,16.56999969,108.3899994,182.25,169.7200012,171.5099945,77.18000031,38.5,52.27000046,54.72000122,37.81999969,107.4000015,34.52000046,53.68999863,344.8999939,93.38999939,38.11999893,169.8500061,69.54000092,82.75,335.5599976,28.45999908,40.25500107,84.8465271,209.6600037,178.8800049,41.43000031,34.84999847,50.40000153,87.12000275,26.71999931,64.12000275,85.72000122,121.0199966,207.2299957,158.6600037,80.08000183,71.37999725,68.04000092,138.1499939,25.32999992,93.31999969,52.75,117.7799988,18.84000015,56.91999817,196.0099945,165.6900024,21.90999985,198.9100037,42.56000137,102.3099976,21.82999992,55.74000168,94.05999756,60.81999969,248.4700012,60,43.66999817,28.42000008,57.11999893,57.77999878,53.45999908,98.48999786,100.5299988,19.54000092,57.59999847,27.39999962,32.00999832,95.80999756,288.2900085,59.11000061,33.34999847,143.4700012,219.7799988,796.9500122,201.3000031,74.97000122,54.27000046,127.4899979,48.08000183,54.83000183,16.20999908,110.9100037,113.4400024,86.19999695,55.45000076,77.51000214,77.65000153,106.1800003,48.97999954,45.86000061,147.1399994,104.9000015,89.70999908,68.36000061,19.37999916,70.01000214,11.72000027,103.8000031,71.65000153,58.11000061,176.7200012,18.21999931,186.9299927,44.79000092,45.49499893,63.34000015,77.84999847,141.1100006,68.52999878,80.94000244,93.83999634,119.9899979,47.83000183,71.94000244,94.69999695,55.15000153,74.81999969,57.99000168,109.7099991,43.86000061,167.2299957,24.5,117.7600021,58.54000092,170.4400024,54.77000046,168.9100037,167.7700043,71.29000092,54.02000046,126.2300034,105.4800034,243.3300018,61.54000092,218.1399994,163.7100067,132.7200012,115.1999969,40.88999939,268.1400146,126.0199966,75.04000092,258.1900024,149.4199982,42.79999924,106.6200027,42.09999847,107.4499969,64.38999939,367.9100037,189.3699951,53.49000168,46.20000076,98.69000244,85.45999908,47.74000168,176.4100037,37.70999908,223.6399994,50.34999847,80.16999817,71.56999969,192.8500061,179.8399963,67.81999969,1402.050049,34.09000015,137.7100067,115.3099976,15.98999977,122.9700012,1187.560059,28.19000053,155.1600037,21.15999985,105.1699982,102.8799973,46.20999908,78.43000031,170.0899963,118.8700027,129.4600067,96.73000336,21.23999977,44.41999817,95.48999786,80.98000336,67.62000275,25.87078667,96.91000366,75.56999969,131.7599945,32.54999924,67.05000305,69.94999695,145.1300049,110.1900024,440.2399902,27.82999992,170.3399963,79.09999847,38.40000153,42.13000107,28.84499931,113.6999969,146.1499939,188.3600006,92.73000336,45.58000183,81.36000061,64.01000214,131.0599976,19.92000008,62.84000015,180.2899933,69.30000305,52.79999924,35.75999832,60.59000015,34.65999985,55.88999939,64.06999969,275.4700012,89.59999847,39.13999939,79.81786346,1950.47998,85.45999908,126.3199997,284.1400146,27.39999962,74.08999634,26.04000092,60.15000153,68.59999847,72.41999817,155.8000031,93.81999969,138.2400055,274.6000061,128.1600037,586.7999878,330.230011,71.73999786,162.5500031,27.62000084,104.3499985,74.41000366,95.15000153,57.15999985,115.4300003,36.77999878,110.6299973,106.5899963,18.77000046,128.0899963,202.5700073,68.91000366,54.93999863,121.4899979,49.71121597,105.3000031,64.58000183,94.48000336,123.2099991,153.8399963,374.3599854,66.5,113.5,43.49000168,80.08999634,17.13999939,37.18999863,55.25999832,78.08000183,169.2100067,68.13999939,86.37000275,280.6900024,261.8500061,190,79.09999847,229.8300018,1187.560059,14.61999989,250.7899933,119.7799988,215.7599945,239.9600067,26.04000092,121.2300034,185.3699951,134.9799957,97.06999969,97.34999847,61.90588379,53.06999969,97.91999817,441.5899963,22.67000008,54.20999908,67.94000244,125.0299988,70.26999664,79.38999939,123.6399994,85.44999695,72.51999664,66.55999756,17.13999939,98.30999756,16.70999908,40.20999908,244.8300018,49.11000061,163.9400024,84.20999908,122.3799973,46.95000076,161.6600037,84.94000244,36.50999832,43.38000107,55.40000153,51.59000015,14.61999989,227.6900024,113.2600021,64.54000092,111.6500015,42.83000183,70.48999786,314.1300049,73.06999969,40.29999924,114.4100037,76.56999969,692.2999878,377,245.5800018,20.21999931,30.84000015,94.51000214,187.0299988,34.09999847,95.51000214,137.0200043,63.15999985,47.18999863,92.95999908,12.94999981,98.26000214,126.4700012,88.66782379,142.1399994,48.24000168,87.69000244,229.25,163.9600067,283.9700012,67.83999634,26.09000015,37.04999924,102.8000031,126.9300003,65.73000336,106.0100021,172.2799988,45.79999924,60.93000031,247.7599945,259.7399902,257.8299866,119.3700027,79.02999878,140.5700073,238.8899994,51.34999847,24.27000046,48.81000137,97.43000031,212.0299988,45.34000015,283.5,218.6100006,33.74000168,45.86000061,46.58000183
2018/1/29,63.31000137,154.7608032,67.90000153,340.8200073,64.43000031,46.95000076,162.5800018,128.4799957,47.70000076,73.79000092,79.12999725,34.25,169.1799927,104.3899994,75.08999634,85.58999634,88.01000214,11.11999989,225.5,15.65384579,54.79999924,109.6699982,166.8000031,65.08000183,67.76000214,119.7099991,31.34000015,181.0399933,83.62999725,61.63000107,76.83000183,256.0100098,99.18000031,151.3899994,44.84999847,32.16999817,119.5699997,104.4499969,119.6699982,39.02000046,38.33000183,69.83000183,59.65999985,86.86000061,50.68999863,211.2200012,199.7799988,62.40999985,43.99000168,112.6500015,136.0500031,136.6699982,37.06999969,182.5,32.84000015,42.97999954,35.65999985,107.9834747,420.7900085,190.8099976,72.98999786,76.37999725,57.22999954,140.9600067,59.58000183,40.08000183,177.7700043,87.59999847,72.05000305,244.9299927,143.6799927,107.0100021,23.80999947,31.97999954,150.8999939,99.41000366,223.8999939,116.1999969,83.48000336,111.5400009,77.29000092,155.6799927,85.70999908,32.27999878,65.81999969,76.80000305,49.97999954,61.22000122,77.73069763,80.26999664,64.26000214,61.61000061,267.6900024,79,120.7600021,274.480011,44.63999939,43.11000061,16.12000084,109.5500031,177.9100037,168.5,167.9600067,76.23999786,38.20999908,52.11000061,54.13000107,37.25999832,106.8399963,33.43000031,52.31000137,351.4200134,94.19999695,37.63000107,166.6699982,69.04000092,82.18000031,338.3399963,27.72999954,40.41500092,83.74797821,206.4700012,176.8999939,40.45999908,35.08000183,50.88999939,86.72000122,26.82999992,63.38999939,84.70999908,118.6699982,204.9199982,159.2100067,79.95999908,70.73999786,67.58000183,137.5,25.36000061,92.33999634,51.93999863,116.3799973,18.62000084,55.88000107,198,162.8300018,21.76000023,198.3200073,42.84999847,101.2300034,21.79999924,55.25999832,93.91999817,60.36000061,247.4100037,58.72999954,43.29000092,28.32999992,55.33000183,57.52000046,53.11000061,98.23000336,98.04000092,19.62999916,57.45000076,27.30999947,31.53000069,95.15000153,291.230011,58.41999817,33.16999817,142.3399963,218.8099976,786.710022,198.2299957,75.23000336,54.04999924,124.7699966,46.65000153,53.13000107,16.22999954,111.6900024,112.1299973,86.48000336,55.38999939,76.58999634,77.40000153,106.9400024,48.5,45.11999893,147.9900055,104.5999985,88.22000122,67.94999695,19.26000023,68.83000183,11.81000042,103.6900024,71.94000244,57.99000168,176.3300018,18.03000069,187.3000031,44.09999847,44.77500153,62.79999924,76.58999634,138.9199982,67.31999969,79.38999939,93.77999878,117.5500031,47.63999939,72.18000031,93.68000031,55.29000092,74.52999878,57.02000046,109.3000031,43.33000183,161.75,24.21999931,116.5800018,57.61000061,169.2100067,54.40000153,168.75,166,71.51499939,54.18999863,127.3899994,105.0899963,246.8500061,61.20999908,218.6999969,162.9199982,130.6399994,117.6500015,40.79999924,272.480011,125.3700027,74.5,257.019989,148.9600067,41.97999954,107.8799973,41.45000076,107.7799988,63.38999939,358.480011,189.7899933,52.61999893,45.97999954,96.38999939,88.80000305,48.43999863,178.1100006,36.72999954,220.7400055,48.31999969,78.91000366,71.15000153,192.5399933,177.4499969,65.01999664,1417.680054,33.70999908,136.6000061,112.4100037,15.93000031,121.3399963,1186.47998,28.47999954,153.4499969,20.82999992,103.2600021,102.6900024,46.34000015,78.15000153,168.25,116.9700012,128.5700073,96.30999756,20.95000076,44.54000092,94.34999847,81.30999756,67.25,25.4494381,96.87999725,74.51000214,130.3999939,32.13000107,66.26999664,71.05000305,144.3300018,108.6100006,436.3399963,27.05999947,168.5500031,79.08999634,37.47999954,42.09999847,28.23500061,113.3000031,147.1900024,187,92.12999725,45.36999893,81.65000153,63.02000046,129.4199982,19.76000023,61.97999954,163.4799957,68.44000244,52.43999863,34.08000183,59.52000046,34.63999939,55.52999878,62.43999863,273.9400024,87.44999695,38.86999893,79.24544525,1929.22998,84.56999969,124.8399963,281.2999878,26.86000061,74.33000183,25.90999985,59.49000168,68.73000336,72.36000061,154.1199951,93.87000275,138.8899994,284.5899963,126.9000015,574.4199829,332.3299866,70.15000153,161.1900024,27.70000076,103.8799973,73.41000366,92.36000061,56.81999969,116.3499985,36.33000183,109.8300018,104.25,18.70999908,126.7900009,195.9700012,68.29000092,55.11000061,120.9100037,49.5701828,105.3399963,63.70999908,94.88999939,122.3099976,155.1600037,382.8800049,66.01999664,113.6999969,43.02000046,79.18000031,17.05999947,37.02999878,55.75999832,77.48999786,167.1399994,67.19999695,86.68000031,279.1400146,256.5100098,185.9799957,79.09999847,227.7400055,1186.47998,14.52999973,245.4700012,118.6800003,209.2100067,236.9100037,25.90999985,120.2699966,180.4700012,134.7700043,97.62000275,97.09999847,62.28235245,52.68000031,98.47000122,435.1600037,22.59000015,53.04999924,68.19000244,121.7600021,68.41000366,78.41999817,122.8899994,84.30999756,72.44999695,65.77999878,17.05999947,98.25,16.96999931,40.15999985,241.7799988,48.93000031,161.7100067,82.79000092,121.1299973,46.75,161.2799988,83.73999786,36.04999924,43.75,55.63499832,51.27999878,14.52999973,229.1499939,112.4199982,65.48000336,107.3700027,42.70999908,69.76999664,317.2799988,71.59999847,39.61000061,111.6800003,76.37999725,685.789978,374.5,243.6000061,19.70000076,30.26000023,93.25,186.7799988,33.08000183,93.54000092,135.1100006,62.56999969,47.29999924,91.27999878,13.31999969,96.98999786,124.5100021,86.60899353,139.6699982,47.54999924,87.27999878,228.8200073,162.75,276.769989,66.81999969,25.79000092,38.02999878,102.8199997,125.9700012,67.45999908,105.5800018,169.5200043,44.56000137,60.56999969,247.6999969,255.9499969,250.2599945,119.2900009,82.38999939,138.0500031,236.6499939,50.45999908,25.18000031,46.81999969,96.81999969,210,44.79000092,277.9899902,217.6600037,33.49333191,45.95999908,47.65000153
2018/1/30,62.43999863,152.3646851,68.34999847,337.7099915,63.95999908,46.40000153,163.7599945,125.2300034,47.40999985,74.66999817,79.58999634,32.33000183,168.5099945,104.2399979,75.31999969,84.73999786,86.77999878,11.06000042,224.2799988,15.33653831,54.13999939,109.5299988,163.6199951,64.19999695,67.94000244,118.5,30.82999992,180.3399963,80.19000244,60.65000153,77.90000153,251.5399933,99.80000305,150.0500031,45.20999908,32.31999969,118.3499985,105.8300018,119.8899994,37.79999924,38.29000092,69.81999969,58.45999908,86.94999695,51.00999832,209.1799927,199.7799988,62.5,44.79999924,109.8899994,135.3600006,136.5,36.79000092,182.0700073,32.68000031,41.97999954,35.43999863,106.9302597,421.3599854,187.25,72.47000122,74.54000092,56.86000061,141.7599945,58.58000183,40.09999847,172.4799957,86.08999634,71.75,243.5,142.4299927,105.1900024,23.44000053,31.51000023,149.9100037,98.70999908,207.8899994,115.1100006,83.48000336,110.1100006,77.66000366,155.1000061,83.98000336,31.87999916,65.27999878,75.09999847,48.79000092,60.18000031,77.18455505,76.12999725,63.34999847,60.36999893,261.4599915,75.73999786,120.8099976,275.4500122,44.52000046,42.47999954,15.98999977,107.7300034,172.8899994,166.3600006,166.9700012,74.76000214,37.86000061,50.99000168,53.90000153,37.43999863,105.1800003,32.72000122,50.52000046,350.3900146,94.26999664,37.56999969,168.3000031,66.81999969,81.05000305,339.4599915,27.81999969,40.17499924,86.47011566,204.6499939,175.1900024,39.84000015,34.38999939,49.40999985,85.95999908,26.44000053,63.29999924,83.73999786,117.3300018,201.8099976,157.8999939,78.62000275,70.51000214,67.33000183,137.5800018,25.72999954,91.33000183,50.95999908,115.0199966,18.05999947,56.09000015,191.2700043,160.7200012,21.70000076,197.9100037,42.25,100.0199966,21.43000031,53.66999817,92.73999786,59.83000183,236.6499939,58.40000153,41.66999817,28.03000069,53.38000107,56.70000076,51.99000168,96.54000092,98.44999695,19.12999916,56.59999847,26.25,31.42000008,94.76000214,282.2900085,58.25,33.02000046,141.75,214.6199951,776.6699829,196.8999939,73.87000275,53.20000076,123.0800018,44.56999969,53.49000168,16.10000038,110.1399994,109.4100037,84.58999634,55.02999878,76.38999939,76.80000305,105.6900024,48.15999985,42.72000122,147.2700043,103.4700012,87.94999695,65.87999725,19.14999962,68.55999756,11.60999966,101.5999985,71.79000092,57.40000153,171.75,17.80999947,184.3800049,44.31999969,44.28499985,62.31000137,76.29000092,139.8300018,66.98999786,79.33000183,91.55000305,112.5100021,46.97999954,72.12999725,92.69000244,50.84000015,72.98999786,57.18999863,108.5199966,41.52000046,161.6300049,24.45000076,115.1699982,57.40000153,168.5,49.72999954,168.4499969,165.8200073,71.26999664,53.93000031,125.9400024,102.4599991,242.7200012,60.56999969,214.8699951,162.6100006,128.1100006,118.6999969,40.40000153,268.9400024,121.3899994,68.5,243.4400024,148.7200012,42.34000015,107.1600037,40.95000076,107.9700012,62.90000153,352.5899963,190.5700073,52.34999847,44.02000046,94.33999634,87.29000092,47.84999847,177.4700012,36.59000015,220.0500031,48.52999878,78.88999939,70.19999695,193.6000061,172.0099945,63.86999893,1437.819946,32.93999863,136.6300049,112.1500015,15.60000038,119.4199982,1177.369995,28.31999969,153.3300018,20.60000038,101.5800018,102.6600037,45.65999985,77.76000214,166.8699951,116.0899963,127.7399979,94.93000031,20.82999992,44.34000015,92.11000061,79.72000122,66.55999756,25.36516762,94.98999786,73.55000305,128.8899994,30.39999962,64.95999908,69.69999695,145.1499939,107.9400024,427.8399963,26.69000053,167.1900024,78.93000031,36.68000031,42,27.91500092,112.2300034,156.3099976,182.6600037,92.55000305,45.20999908,81.84999847,63.31999969,127.4599991,19.65999985,61.40000153,171.3899994,68.26999664,51.47999954,33.93000031,58.52999878,34.70000076,54.65000153,62.56000137,268.269989,87.08000183,38.40000153,79.39289093,1921.530029,83.38999939,123.5500031,279.6300049,26.09000015,72.70999908,24.96999931,58.72999954,69.36000061,71.81999969,153.0599976,92.52999878,140.9499969,278.7999878,126.7399979,562.289978,322.0799866,69.12999725,159.6999969,27.19000053,102.3300018,73.06999969,90.16000366,56.72000122,114.5999985,34.90000153,110.0299988,102.2799988,18.22999954,122.3600006,191.0800018,67.90000153,54.97999954,118.8499985,48.11954498,104.2300034,63.06999969,94.62999725,115.8799973,156.25,379.769989,64.27999878,112.2200012,42.70000076,78.34999847,17.04999924,36.52000046,56.11999893,76.55000305,166.5399933,66.91999817,85.44000244,278.3399963,254.5899963,187.1199951,78.05999756,226.75,1177.369995,14.10999966,240.9799957,114.3300018,203.2200012,235.8399963,24.96999931,122.5299988,182.1399994,133.2799988,101.4499969,97.20999908,61.23137283,52.59000015,98.19000244,439.5599976,21.75,52.45999908,70.66999817,120.7200012,68.16000366,78.5,119.2699966,83.77999878,71.61000061,67.01000214,17.04999924,99.12000275,16.54000092,39.63000107,241.1799927,49.09999847,160.3399963,82.91000366,119.5100021,46.16999817,157.3600006,83.11000061,35.88999939,43.13000107,54.34500122,49.90000153,14.10999966,226.0500031,111.3799973,64.19999695,106.5599976,42.18999863,69.33000183,317.3699951,70.81999969,39.25999832,111.3700027,76.02999878,677.1400146,376.5700073,242.8600006,19.69000053,29.92000008,92.95999908,186.5899963,32.45999908,92.5,133.2899933,61.83000183,47.25999832,91.31999969,12.86999989,95.70999908,125.75,85.64013672,139.0399933,47.77999878,86.41000366,227.4499969,161.6799927,270.0799866,66.41999817,25.70000076,37.11000061,100.6699982,124.7099991,65.05999756,104.3700027,169.7100067,43.97999954,59.95999908,244.7899933,252.7700043,247.0200043,118.3099976,82.44999695,138.3000031,235.0599976,50.99000168,25.62000084,46.54999924,96.41999817,209.5899963,44.40000153,275.230011,210.5899963,33.13333511,45.74000168,47.20000076
